0.749917101729895,1.98129105272521,0.874321997203678,0.860285932707657,0.887222859339033,0.73338431219264,1.53387313708741,0.093263392594557,-0.30995725993459,0.654181513376107,-0.638734440917267,0.0314960955932143,-1.34351142762226,0.167514941291813,1.25222467450094,-1.36127862157776,-0.586274834172553,1.2542152763551,0.929245949978757,-0.0344656612357548,0.685406019951601,-0.71385059260852,-0.906196833238079,-0.182364315845332,1.55533067222377,1.90547472793763,0.910138187934597,0.827723165508352,-0.954350332398341,-0.879561970751852,-1.97070145878979,0.120423024908101,-1.44289098535017,-0.501224209837564,-0.959257061148601,0.495884843592823,1.59723490194992,1.59298352364048,-0.61571627683954,0.0161328726602816,-0.722186206294807,-0.589594638368689,-0.781592891975366,-0.677344382410732,-0.534987746612807,-0.0893743800609513,0.734942085689866,1.072070154848,-0.094156807706701,-0.0116570209548668,-1.50288348887508,-0.0186205922452511,0.337498847451652,1.19143077335723,0.798640079770189,-0.0698705496912149,0.801635664516159,-0.0225359934830959,-0.0534686789558541,1.88460375349004,1.28007257923597,-0.902498479898475,0.701129215212125,1.07822260774676,-0.848765790858123,-0.34619252889764,0.556929272000268,-1.65935329313437,-1.29256553903012,-0.512548704865315,-2.13881961484041,-0.399803099340574,-1.19164352043748,-1.38527679520283,-1.31072985777965,-0.162701629021601,-0.649851974077325,1.46920740737345,1.26345162426711,0.474181721281168,-0.917067835415721,-1.56960971225824,-1.86784472424198,0.989039303082932,1.44458331833065,-0.290499052980931,0.487010324088214,-1.8568440026639,-1.95768365722946,-2.47288148125502,0.634143669237662,-0.065419002395114,-2.43788921947038,0.372157225243172,-0.61116709421721,-0.643280082351412,-0.931036309688297,1.30242944431417,0.521919382010164,0.0131757813829446,-0.0252658234302912,0.0530998106377684,0.398775298165325,1.32974067646439,1.93997785202198,-0.712902973742597,-0.838728537313804,-0.987602180540225,-2.50410014636183,-0.958658893372273,-2.01006722911389,-1.80993963635318,-1.71846400478547,-1.18264742565875,-0.547295449509729,-0.272876354746236,0.0620692084104478,-0.245618434411214,-1.71777009429775,0.328969209247291,0.11403864438271,0.0494216685492662,0.158365125422919,-0.634446496479487,0.473568942026296,0.531086013198296,1.58428064771534,1.70829969212826,2.39859891301384,2.57257121041721,0.899407314064497,1.46923340971321,0.759804243061608,-1.10863448128115,-0.259959181356479,0.264960724649328,-1.41832439193243,-1.07487743744014,-0.0444045552407597,0.244407587998802,-0.322598609528249,-0.991285687636086,0.842551675162826,0.0403802297724126,1.18125873980743,0.750463407843851,-1.54418922614755,-0.927607700146385,-0.350288283101982,-2.35938652554353,-0.361272123651655,-1.70261568329977,-1.13578376740739,1.17786759180566,-0.30906554905245,-1.51209625078672,-1.0458254493703,1.05390222737299,-0.251763725462018,-1.2741985093854,-0.703055129996373,-1.98525642647488,-0.908999482115934,-0.0221870301206653,-0.924679904186808,-0.41402730759516,-0.61691658932997,0.486566269344108,0.290713897313283,-1.25877449441628,-1.23299463615194,-0.760988877030673,1.42495014377976,0.633040565632104,-1.19327741158628,-0.179466031344427,-1.51707955760382,-1.27417060660486,-2.1383332604136,-1.83092003780823,1.98725893594918,0.909801504147446,-0.43336148732081,-0.315318007081278,-0.274236066881342,0.361274512041067,-1.86655416531873,-2.08047774329031,-1.07375100505904,0.713713055267869,0.273792714211902,0.409953576345518,1.60109509861139,0.673497562125869,-0.779588763037348,-0.495799437127249,0.320126471762085,-0.72198161048204,0.232404075718323,0.441805285377033,0.51927509449885,0.347475555940094,-1.19930476233165,-1.72082202731774,-0.261960080265671,2.37443604032581,-0.0807445325667395,-0.251515023227066,0.0130862328946487,0.599513999471408,-0.267504437664869,-0.99893374827742,0.0154993016301082,0.321827221130293,0.268734269974294,0.563161426637503,1.25919891052942,1.21483870454923,-0.334813295928404,-0.218376093671241,-0.386051160271415,-0.486878241461242,-0.384888944841677,-0.142647551246442,0.151485276555146,0.228351420237083,-0.41209445429346,0.585910531283541,0.0461929068933461,-0.296876016792051,-0.0807389632935634,-0.299766410578512,1.94980308557943,-0.673890724699748,-1.12338463731712,0.0798376875875609,-1.00102565543236,-0.518166880963477,1.34713058446412,0.771777597171096,-1.64837350292409,-0.141168918940984,2.29546171137025,0.646390063208885,-1.73741084010471,0.623640201899812,-0.469006378416261,-0.51015221598825,1.15409642938795,0.730403703344339,-0.190684750856319,-0.125582788612003,-0.681569324344616,-1.07006797539803,-1.68309364665512,-1.07223516122007,-0.470765078442171,1.98912611324045,1.7392867684935,0.881481244906658,0.834250974895667,0.632943696407912,0.381982054949572,0.861756327588279,1.28594035568019,0.782344189168865,1.04921397269632,0.471030409535774,1.59725815803356,-1.02197810755834,-2.46464062768659,-1.3028335670701,-1.14178279092861,-1.00337878300708,-0.392806743998163,-1.90360871613638,-1.23634614898552,0.476941435140103,2.08938125536003,0.927573133525861,-0.235971689224054,-2.06560278725345,-2.06057427247445,0.532555079365887,-0.135300718880102,-1.26123803862776,0.477900857371534,-0.569937414013211,-0.878474834186767,-0.911102416181949,0.177138259632651,-0.99134228429514,-1.12366764220307,-0.520472738513257,0.218888681561328,0.542667755122807,-0.869254489786279,-1.28217988678923,-0.821478168951171,1.76230402751924,1.34662459035205,-0.10393176515977,-1.18564917835359,-3.00518819799031,-1.86480083170964,1.04902333678264,-0.740241588077928,-1.04138926043879,-1.77932102088219,-0.181860513453582,-1.09775950296093,-0.633281927141385,-0.48142838082996,-0.218791670805896,-1.77367906820145,-1.21215650928819,0.815229050752232,1.89058404151277,-0.194135944637685,-0.154956621355367,-0.305387838313822,-0.665045041899934,0.51120941939748,1.17127174817949,0.637522536745235,-2.50016151943973,1.10872580372255,2.64915994958457,0.148626231862305,-0.192250800085071,0.827981971789729,-2.09287908798557,-2.4990410224995,-2.41237338738057,-0.946500388072834,-1.65838582096332,0.0215819471950391,1.06727340073236,-0.737752687764146,-1.36697196179918,-0.680595169157205,-1.1985028024579,0.316057896037366,0.587090416189771,-1.29188352379666,0.347684932838535,-1.46978323442045,-2.48705915470192,-0.92849160424674,-1.41220708906792,-0.183143842363675,1.09604323497194,0.680521318159045,1.1115515028188,1.42386105320035,1.64558159201762,2.0620348034108,-1.2955911763863,-0.614081211950422,-0.113468248591622,-0.781600911304192,0.0277675973239994,-0.00913587276587469,0.578967973050807,0.432914631098359,-1.45803543429793,-1.81264064821047,0.509393713369403,2.29994628679898,2.10875755115432,0.305932671467547,-1.32101697421152,-0.0926010966958565,-1.99108099804518,-1.54211907834163,0.26861576560128,0.373636678660993,0.433337301970919,-0.464903976477065,-1.37229120544115,-0.194024748506628,-1.40504709367133,-2.23516125672046,0.285564788975277,0.152750709616743,0.892123363609916,1.35712296926133,0.680629648930317,-0.218070575513601,-0.462332333369093,-0.870418054337116,-1.33349631968962,-2.05760361449352,-0.235499952998153,0.546280780987116,0.374843907521183,-2.02482845727922,-1.57108280028438,1.29445486671626,1.03970953933228,0.817170569260438,0.0631848236084696,0.685525413782984,2.10399959017608,-0.0363332513897516,-0.53446714823368,1.79226751852346,1.96355544587391,-0.179824025109017,0.466980951716461,-0.442639966736761,-2.29176706542122,-0.323174480062953,1.88151654414547,0.457954907272579,1.41659506871268,-0.299224063420971,-1.38612003049703,0.466490257958689,-1.0904128635292,-0.855532117809328,-1.77408953988081,-1.92325120686695,-0.131174163569094,1.12352833240758,0.132900683019351,-0.484350787672725,0.0591109481027549,2.00323901099496,0.659237967172717,-0.814850705743555,-1.13411666046985,0.316631456101722,0.0174818067348834,0.192207265100285,0.267459528793959,-1.87354875055095,-1.44475177746678,-0.860059632454176,-1.75382988145518,-0.575014449101407,-1.05693278498044,-0.604199450659339,-0.0251561754333356,-0.491391605070874,0.0226795825448336,0.24788019140952,-1.63335261961426,0.059043386734818,-0.342634717989298,-0.170433384451182,0.563468955422667,0.215664155652152,0.0797977013042336,0.379566608795217,1.2420701283408,0.303816894173057,-1.38822813190062,-0.443529989629676,-1.5181738145156,-2.05879619857936,-0.127770867026468,-0.211395413861098,-1.75899638255548,-0.111561772577406,-0.514735010571466,-0.0817621938431462,1.39477207547867,-0.860726870400709,-0.233945109360292,1.60184736821837,-1.02906740678058,-0.778781403063422,-0.0349277511029519,0.30039573866187,-0.0798311568398301,0.612207647759731,0.813779625385097,1.03764246386692,-1.10906419006262,-2.70836218569892,-0.817580411735204,-1.29610316966718,-0.391255406609936,0.548213988014077,-0.717026567511868,-1.76540577807093,-1.59158258477779,0.678134842449945,-0.791119470641565,-0.799524772432189,-0.117832623914018,-0.45944997045688,-1.20000276016535,-1.02890951142044,-1.88425980236452,0.097585513741769,-0.700895361988635,0.287558228828033,-0.475344183877525,-1.84823505073715,-1.24589480759776,0.485307924159535,-0.32069046365272,0.703740288632136,-0.171620878337877,-0.56565035046925,-0.0933850734096607,-0.837702926156506,1.7924186406374,1.31995157946359,0.326845834553259,0.354396795509259,0.400579741008602,1.11003247577898,-1.15833161419337,-0.47914885115538,1.39794097366043,0.704739663430299,-0.188760485845196,0.0857807075827063,0.529049492167912,-1.57435783516081,-0.903060242857649,-0.0954613816463427,-0.0994952829407422,-0.0903186296874275,-1.10447425248683,0.535429906920525,1.31770989464281,-0.442525642294078,-0.887222134623095,-0.198009483127941,-1.09297530346146,-0.997478506758001,-2.32461073603408,-0.332747397069126,0.267418675756899,1.12338880348249,-0.432513231685464,0.00524726974992662,1.44967395979341,0.789661253117756,-0.530348139902472,-0.678830899141729,-0.684838792977211,-0.721254616294337,0.151435522614613,1.31810529260218,0.203294756844565,-0.43463384909746,-0.866854557476124,-0.269168655109697,-0.342067158063279,-0.689900569817093,0.143078794129663,0.989268370062246,0.137382129094088,-1.4423078977995,-0.689838269434982,-1.33380233037056,-2.344861780738,-2.81430358552725,-1.32784990636144,0.98809167821415,0.384443539133095,-0.20394351878426,0.474924703943231,1.12734357222912,-1.05541534268811,-0.193756788116421,-0.580135670691703,-1.23392107532116,0.0420050994385332,0.514351460782377,0.461780671507974,-2.21058567753313,0.0812519903570101,2.49774964251755,-0.869034357283724,-1.20112621870395,2.02525337670692,1.94091402712912,1.60358671447719,0.152072789824276,1.29343097368878,0.666264857858196,-1.34093910954556,-3.41260946839589,-1.66999644163787,-0.235941963656779,0.570302988520442,0.677272046883523,0.219730462187872,-2.46304942247926,-1.5547046732235,0.555315185161721,0.0295485996090579,-1.70906393303192,-0.565323725813264,0.811054189735605,-0.468461897636571,-0.155240047478995,-0.0222427521365924,0.47573184161052,1.35012451897685,1.99358093599763,2.04131389287011,-0.210532517497791,0.163488007762928,-0.65184870460603,0.947764694146545,0.721223017767956,-2.19569742124188,-0.394844901854608,2.13259648079991,0.971237211343066,-1.97104362889338,-0.916358852653937,0.563462069761984,-0.849582121318541,1.29825696050692,0.119652555454406,0.972216017723076,2.67669077199979,-0.36222226270367,-1.67228699901958,-1.23476934539073,0.188972665414229,-0.089579926913502,0.857180538129685,0.913747546665821,0.0917510882296395,0.15793149137412,-0.0213390943362074,-0.690776408097245,-0.885530974284143,0.662915075256683,0.921715933895014,-1.31026081567795,-0.157198265404772,1.03657153535469,0.674835810895396,0.678756606290479,1.06672815363464,-0.571642110964287,-0.679826236853723,-0.00405325889382309,-0.248891101998542,1.30844909002815,2.75768381464821,0.384705794399355,-1.53388510713583,0.121208412651431,-0.638559786525677,-0.478437965237443,0.18347047914944,-0.480837254958889,0.322995840844116,-0.244128577849447,0.854335387709859,3.09671161014424,1.60926782591185,-0.216832700178372,2.34287724980964,2.46731317267258,1.09855947758704,-0.538555265997777,-1.0009439889006,-1.39312138825635,0.39151210259372,0.950498012328797,-1.43156518911876,-1.15709928812616,-0.362849321061898,-0.0532944418814344,0.35482625735707,-0.477619905381987,0.626097869446697,2.34789299061662,-0.0485559661037447,-1.89749138225319,-1.23883427718599,-0.843017239337256,-0.610754609731629,-1.14159884642457,-0.86129777166623,-0.326939257520448,-1.15603290158264,-0.682458722635552,1.8430390772023,2.07857008224505,0.848671578415468,-0.533701707764717,-0.673397414393247,0.367094798026758,0.573384885873359,0.206034326562041,-1.58703054928855,0.360146492555687,0.693781660536316,2.51584568313425,0.893049294140228,-1.51259739568716,-0.0288087060002891,0.541754189815042,-0.751858739516454,-1.4214264733091,-2.99318940563501,0.131553963944423,-0.980400419100721,-1.27963366677851,-0.433437075250765,-0.264966740514873,-0.198082450976698,-0.158849277544956,0.857035615714947,-1.44703884622472,-1.98234167420011,-1.3520784881889,-1.55297379238176,-2.11586078363098,-0.393913383358751,-1.01222628115581,0.751322694339882,0.207553250327866,0.270543712299549,-0.677859543295295,-2.73024257630307,-2.66584417677018,0.518297224421197,0.904824851560794,1.35409517478878,0.570121056760993,-0.0895767038597443,-0.0102619857491119,-0.670561873342525,0.095875371214638,1.72227111197002,2.45869810928013,1.92311471647081,0.954839371306769,-1.95096161081466,-1.59775699670753,-1.98628437441565,-1.96423541755038,1.30445616219368,-0.19316969752822,-2.0926732044663,-0.987541551652489,0.913455776788928,0.80748479065113,-0.773470024379077,-0.0091239904492304,1.12883927474531,0.535993016304357,0.513873663968673,0.309727486164218,-0.365700050101529,-1.40362585647037,-1.16574189356546,1.1689853384851,0.994353775967692,-0.058052251182671,-0.383609535069494,-0.838528466570604,-0.400551831366647,0.00364768757569417,-0.346148808098481,0.436310021293542,-1.23775037495565,-1.63656394306054,-0.127799236270275,0.705058383121419,1.31471921724038,0.214259680966744,1.03927992491785,0.275780222600107,-0.895592684669471,1.29040901837841,0.138576993078864,-0.0995292504355863,0.884469637989,-1.73564825985656,-2.65234739587303,-1.67730245600359,1.12014265000601,-0.00213785600969874,1.05408693774224,0.456172137837962,-0.145070223399131,-1.44698529557007,-0.481074019211001,0.400304587215643,-0.733760997147134,-2.08769595199745,-0.00685813987271122,0.198468951374887,-0.754096965136617,-0.948746350971375,-1.9618606288468,-0.457374331398222,0.283843537144311,-1.93974722394816,-2.38019089070369,-1.68196406339146,-1.78276264238898,0.00268118338570233,1.23251961393372,1.51551957557249,-0.18310219808542,-1.49755035404931,-0.808356518928788,-0.701841495596916,-1.51268230014299,-0.602750492773306,-1.46332835198361,0.230805423762237,0.655653771979664,0.351087702209822,-0.262781597588014,-1.96456286462008,-1.96453087229808,-0.635101894002588,0.307462214814923,0.466002466411902,0.937305143644497,0.663596852142223,1.39376242044195,2.60184514511981,-1.066062704546,-1.86083148998538,-1.43385312726775,-1.27470750455002,0.138783087032191,1.10808354164594,-0.684504788553172,-1.16926392955171,0.00585881992927567,-0.127914965099727,-1.21643751741307,0.685189079906331,-0.392353997264073,-0.494735125286383,1.45855331839525,1.98984808632421,1.01220614933012,-1.17611157208694,0.594451319456357,0.687338702072592,-1.26920228236313,-0.612826285075124,-1.14380357585994,-0.191799104268036,1.26182458899945,1.12552616784803,-1.09389803196251,1.42947634324173,1.60130311556021,0.219425843670129,-0.00774164884463655,-0.415470576091884,-0.846513853075472,0.268835700868578,-0.00682359378355468,0.425622724145983,-0.760547304861879,-0.569727929222566,0.505998468071654,-1.43394158232599,-1.7106679490051,-2.00715702400411,-1.07520346749104,0.223727240203364,-0.900808690353347,0.533458834297491,0.376489120923275,0.741505730394685,1.07375499754773,-0.00501174430690304,0.0871364533443764,-0.891200078521408,-1.61866750551011,0.185480111060909,1.14876372735329,0.239425834844066,-0.277201444257438,0.330480000437573,0.857601623043658,0.0337250006197164,0.304621928543079,1.37936087020891,2.43510928113292,1.34536158561255,-1.36012530415978,-1.07884796136084,-1.29513073143877,-3.43688271968188,-3.35714220332108,-0.709058542208797,-1.24623813408391,-1.63187691593423,-0.982635014234978,-1.27992038793679,-0.305801760069973,-1.05981266888882,-2.35179976924423,-2.90874473771918,1.07369258115649,1.21849727807742,-0.035681318641097,1.3444857459525,0.672444760508927,0.0772939554985052,-0.671572687555349,0.110991297001154,0.794174625938324,-0.426832542041366,-0.913585563239127,-0.550882463138828,-1.63311242924476,-0.914679001951806,-1.25418095634615,-0.20803330797826,-0.377728765299724,-2.45292946818274,0.364014306287826,1.71466413459909,-0.0232416463892544,-0.301583509360185,-1.07286728560104,-1.77964272053804,-1.77239329850018,-0.555663065529692,-1.52149025712929,-0.845594745504946,1.38769054044664,-0.0126996780436535,-0.953126650795068,-0.305754432182204,1.77869362082155,2.2181429504317,0.862689928333955,1.27596973397825,-0.435961413662836,0.515743815090056,0.328552644938049,-0.0844019754325767,-0.105429168652596,-1.22037970619487,0.42855760652825,-0.72389504137299,-0.901309920332046,0.231892662242476,-0.0329891254137126,-0.766556604177706,1.67546938633334,1.36463855459908,-0.593485683871023,0.977918147550303,1.48346712398369,2.33205906914979,1.02584485466246,-0.25092214147588,-1.02475845564704,-1.10575320644827,0.442963397041516,-0.317073989856377,-1.17335261335158,-1.11373353545797,1.2894658050876,-1.1764563450763,-1.52597792273281,0.725795724131871,1.72205421639729,1.23273029275344,0.972922104217663,0.623232006936108,2.45536414348478,1.68337228579278,-0.821290328514959,0.287118556110827,0.0695558394988797,1.6448930517853,-0.966431197106701,-0.928264615035315,0.417911560423871,0.0313846514221313,0.107636042178533,1.1393123193072,1.67309078611143,-1.35938157172027,0.00102122271005423,-1.47990092766132,-2.07961096334351,0.0144653726162284,0.325194748866115,-0.172923427242739,0.615331082189914,-0.353910584438808,-0.150277403786922,-0.775786035256422,1.08082803496595,0.902928969598104,1.99050596500502,1.82293533695464,0.152171996479523,-1.88610800898429,-0.296941650248502,0.393102872982075,0.536428457167966,0.547772705886378,0.543992194460446,-0.169507416524958,-2.62650449331871,-1.49683666313213,0.16803085475851,0.307118557927139,0.403072372255136,-0.192716135131482,-0.764122260649167,0.931613936771768,0.167807165802517,-1.35010060345217,-0.752479704373953,0.489063473853565,1.69901296629311,1.00929920556649,2.12307713663238,-0.0686781456060142,-0.826600940221381,0.0535667095843154,0.258992070395927,-2.25477887781493,0.106858685437466,-1.00621052330854,-0.264945230394871,1.54520247081472,0.923238646991059,-0.685158292043319,-0.333773595376204,-0.419137128713828,0.796640792502545,0.373292464715934,1.48811820075351,0.266753601295442,-0.419292616173902,0.961352994812358,0.209631060193383,-0.098480162703627,-0.614472779686701,-0.691372345034255,0.133598156461644,-1.39946570951962,-2.42880913726788,-1.38296999045176,-1.02807153805568,-0.803271336119775,0.675812523041574,0.236744492529237,0.0643684631327589,0.22383247866702,-0.133729165876158,-0.284523946836589,-1.82088935091457,-0.413346060509353,0.505476604741552,1.39081139820152,0.396270761854875,-2.37202212280586,-1.62828586492666,0.528026828964357,1.34188067892457,-0.151163544398199,-0.918568339320545,0.398119378010604,-0.995919624983767,-0.3919686851624,0.536019103308293,1.15042732324763,-0.300417617973782,-1.12866301400843,0.764890627076338,0.770564646391067,1.91626519859434,2.298741165987,-0.608177922328493,2.16039938206973,1.13447103510951,0.597172888829351,0.231047712569694,0.864834780366813,0.157143689785147,-1.14234035934343,-1.09607479083434,0.375715504106918,-0.07706028285031,0.274899253956342,-1.01859250584538,0.930601497972485,0.92454774193802,-0.862722028417694,-0.763387280725538,0.0673961704074747,0.583094504641176,0.524877981951577,0.938672673956555,-1.02740773108431,-0.470199147887842,0.612967885805228,0.826502193055033,-0.0446775058093597,0.172929142104331,0.371027796337053,-0.378955976910881,0.505739846918293,-0.0838513820439982,1.09024947399401,0.96656512039721,0.453964430350755,0.285709419450028,0.510421465053591,0.758080228412447,-0.761421871832492,-1.82973426006696,-2.95763443369136,-1.66678987947197,0.0623360735632113,0.189048234461813,1.54855741069528,-0.240327911739585,-2.36228024738533,-0.251145427742926,0.52597742388385,0.41873287591481,1.06871788356628,0.923591275026312,-0.258969718763527,-0.484317574518507,-0.43734077571935,1.09178013252537,1.05725620454881,-1.5926644655617,-0.225436587173809,-0.464704854612543,-0.531928046502357,-1.2315669673237,-0.859222701343246,-0.87176283355518,0.47263268902491,-0.899844456235588,-1.90992357721978,-0.933702457467752,0.458126063400012,0.540928677557965,0.101115761141225,-0.198242245509313,-1.90369208471771,-0.136423741786126,0.028078972915656,-0.0942041632601346,-0.119821128896324,-0.789226136769098,-0.0457070785338261,-0.452109891656986,-0.684165138745403,-0.320740776163456,0.3185697118628,-0.316866578269483,0.0410073989948134,-0.779100810133148,-1.08416111277728,0.326516009330722,-0.159854883656645,1.52766039947862,1.84344323001425,0.356026621364594,0.04764282822945,-0.497017229784251,0.971505286113078,0.180400676293916,-2.32588360776078,-1.12972624997751,-2.4555993950744,0.0974123342718045,0.863205498689766,-0.75627695749576,-0.738214198544037,-1.26414480402896,-0.568081503746524,-0.851260505334366,-3.05836853105909,-1.64739039858209,-0.301311775459398,-0.590868488634432,0.898805377365638,0.342998736228446,-0.31521333886042,0.374258272169269,0.370074424183468,-0.712664194314032,0.52493563074059,2.5326636768187,1.50741207673314,-1.30140225627265,-1.360143118124,-0.399486205400851,1.23304208061513,0.678903789030929,-1.48987669558597,-0.0350748571843602,1.61141257533923,-0.92343977336325,0.0447297970108357,0.414005046213798,-2.11877287310826,-1.29659574498555,0.809808608527406,-0.246911799424505,0.108622036137146,1.49949003404571,1.78281905166212,1.85036388233273,0.510752574291124,-1.34536933708232,-0.473810200047408,-0.694209621499546,0.246612948397865,2.39147998675012,-0.182096787402775,0.450195415816718,1.36522519083872,0.503629690555259,-0.197632565746843,1.11236132554023,1.00578599658886,0.794412317986377,0.993789346286254,0.0831987742575281,-1.25532704056794,-0.87699196295392,1.34045766729469,-0.089607764608571,-0.245045359751034,-0.319256391210784,-0.142360385205306,0.311075819986595,0.00805310940427076,-0.352602993310911,1.22384641962742,0.899491814694123,0.685899405978036,-0.503916595934372,0.303369229298081,-0.430384836397154,-0.939032404790663,-2.43809692511323,-1.09834510670579,0.886452050020772,-1.06406587193744,-2.95293551053686,-1.36658727224936,0.923492728119569,0.0833861188658968,-0.965805551875326,-1.0958918606777,-0.459073570044376,-0.0152494980779093,-0.61525651906426,-1.3418853495615,-0.922797307592252,-0.137041266898939,-0.437591315891788,0.793156599186798,0.407613989577245,0.260232015307734,0.910206756465722,0.715316445973737,-0.143470668272562,0.129139321352005,-0.154136909259834,1.05742160229277,1.59717486148248,1.66095223869932,0.918268947594395,0.825070299442534,0.682023338531404,0.014932659923666,0.481765596035473,-0.287573184156544,0.630428578816512,1.32125712341584,0.453555217233129,-1.19035066607816,-0.814957134180113,0.580548282815853,1.18301333972848,-0.608416849564253,0.367420174935309,2.67237101728433,0.586259194103673,0.883543671896235,0.761360524664348,0.256073238203748,0.458453668783182,0.272860361210441,-0.391904853145992,0.681006990004483,-0.220112726952173,-1.38731448570712,-1.05939526814185,-0.00118115061637686,-0.0881004863687525,-1.43977531811252,-1.66439183109034,0.890993679310045,0.528194129043257,-0.390538776424693,1.13299940126861,-0.95408352210003,0.239251792494408,-1.47340503656451,-0.512450731072241,-1.5690031770139,-0.832648343754668,-2.30837893889144,-0.906822879669775,-0.88513378640162,0.912452573150217,0.404580038815703,-0.286785621003083,-0.321850839646827,-0.791622023282654,-1.20510928109189,-1.21691425934161,-0.225727211178485,0.379111601512378,1.36506741969242,1.79814026806882,-0.872597614547825,-2.35905641761235,0.614209751730223,0.50529502988635,-0.835370513211301,-0.44867196748192,0.855876380910616,1.69391912441334,0.89656783084945,-0.192558861931843,0.153532429686949,-0.355474566943098,0.332891174971873,2.60018447094485,0.100917494288708,-0.689853489718033,-0.0019527190706233,0.170293213079145,-0.439340437729252,1.42425365024976,0.250507757084649,-0.806355881363418,-0.761686914715473,-1.38328476409046,-0.0220446088460604,-1.1695387354835,-1.37407241542876,-0.511156251092902,-0.0168635487670209,0.203566440385543,-0.546824636983557,0.243680198507638,0.504016267497895,-1.26046666447296,-0.547724731166921,-1.29972429288618,0.416006276453191,1.81208777002,1.39341556003022,-1.46325300128345,0.361161267477272,0.235304227045919,-2.01386991836984,-0.0241972746890999,1.62633509853189,0.20407431920375,-0.345263423658327,0.83352037569309,-0.0356209006772308,-0.68039061028049,-0.671350694130643,-2.38961400156015,-0.639411687674256,1.03425810844514,2.48357562996072,1.4888881745252,0.496018315392799,-0.857489250747926,0.603418735363407,-0.21159801274271,-0.805832378980692,0.223716600379122,0.33655255660163,-0.96886413127343,-0.587139781818344,-0.615271596153318,1.37842030601468,2.07468964513773,1.36817402742,-0.326646700659389,-1.25449751286825,0.0097117933391595,1.30810283284209,-0.100894738421613,-1.8698782590134,-0.270768427386201,-0.934323860682186,-1.67316540682844,0.856778067166874,-1.38104031967271,0.249617653071616,1.19726702906932,-1.81088477993633,-1.34075833869522,-2.00009340536618,0.0899486680051568,0.253371704602606,1.25735457332809,0.0926041501239105,-1.01967244566613,-0.878138213981632,0.813178173818623,-0.0663229680452079,-0.45051718013498,0.633135037751925,1.70583705103466,1.75530869701816,0.642499427146114,-0.62053164760218,-0.569039125958168,-0.344827554754524,0.883258998904118,0.368227129386685,1.83857905585179,1.13949363634644,-2.02978107158101,-1.18857770191024,0.0802611841458481,-0.603826056150803,0.313016716606999,-0.808879194050322,-1.44532186169393,1.03029128807134,1.05096020661595,-1.12227961333388,-0.310232567521856,-1.12010078611005,0.175353314809575,0.960188827864551,0.546912287063988,0.0231195776399556,-0.234565133155633,-0.107380509961397,1.10340533930412,0.864652350588136,2.27921590277457,0.0458369281972608,-0.190083745953398,0.397027541628615,0.620100201286541,-0.372227009270199,-1.69820188892198,-1.72847265174687,-0.704725567871196,1.21122868508043,0.393163437376238,-1.09480887165896,0.0720106698154742,-0.76213738556142,-0.81318943909824,0.489007169790951,0.803818440297766,-0.906903877564784,-0.546953661190652,0.980589747970086,0.322210962999043,0.546939518511485,-0.442973339481766,-0.667818217847244,-1.02361649515546,1.28250296567904,0.722583240446062,-0.292816544013994,-0.154464822527233,-1.19611629724179,2.46587189501141,0.535591283039425,-1.46805911503127,-0.472692563632192,0.847548318787255,-0.559474112086465,0.24966738327519,-0.29144990425997,-0.265077828804468,1.13168252605381,-0.245187668619576,0.802615992263999,1.58487106088584,0.443205909887275,0.30361319818372,0.347781060086846,2.19435657303154,1.53499432626783,0.509269319779876,0.789573195589458,-0.21196933767195,1.25534851183809,1.47737331774543,1.9970206289166,1.33789194783112,-0.369499135182167,-1.64558654457169,-0.914807228923684,-0.586478545268089,0.0495970259385441,0.0328723634768623,-0.358181577747212,-0.494089141469726,1.83357375839121,-0.166495899567007,0.265854393965403,-0.00545886008918606,0.0984021942747778,-0.310270899052593,-0.0881788307561377,0.703994090330822,0.0389157167317679,-1.52352898348839,-0.0211288316464827,0.493732061379373,1.29972844211299,1.87611496214743,1.85576326795837,-0.854191958372354,-2.76042291490247,-1.24697508659007,-0.323454803942166,-0.33400001614205,-0.117046129869106,1.30751204640949,1.54500028023918,0.684340693493482,-0.36073429250221,-0.165635446030003,-0.734042421636293,0.97700232319659,0.923648499892182,0.323563877421794,0.944563599681709,0.547640682924288,-0.271894336381144,0.178892147051954,-1.25917047237306,-0.51003482627657,-0.486108631799198,0.122450539529602,0.900016601994024,0.333028733011578,0.00963329936518292,-0.327276293972464,1.38511585507401,0.397560918594759,-0.971917565139574,-0.970591694056632,0.0618792859123411,0.145879517337137,-0.357894550015651,0.855636724867985,1.18199384553819,1.56037131993013,1.87980687641075,2.05354809758083,0.926069138994374,1.1755461296303,0.354778929911097,0.268683465019546,-0.473883393248521,1.34904996449711,0.666563928628594,0.765168453901258,-0.00305627118270041,-1.58481305017523,-2.03446753044364,-1.59746044898907,0.200139642617856,0.221208336668436,1.30351647323878,1.43341015567049,2.11711274691403,1.01314457777685,0.00535259980577375,0.829277097667751,-0.554017199066946,-0.426473944053547,-0.170812620375641,-0.551823571849671,-0.276970356834714,1.36797872126108,2.26163675882801,1.32668979232041,1.18178447191398,2.38886912570873,0.230978829308768,-0.354525659288436,-0.464082278032884,-0.942677239838981,-0.452177886014108,0.11408094711002,1.56052609807709,2.33500562858848,2.0582723871219,0.348933583890673,-1.62598095627623,0.710370170294294,0.961526198840933,-0.408811494079598,-0.416253087115661,0.779085464769929,0.400082101727994,1.16768185783931,1.21355791206772,0.910396105917754,1.88513522764739,-0.740977421349267,-0.63893226717685,1.11219634599028,0.841397386286267,0.0813801865976816,1.14292392996346,0.399774413280765,-0.482409430139847,-0.720453082429776,0.787778366689034,0.873295818409764,1.45718416937539,0.38725570204796,-0.0494589101767681,0.228686301508865,-1.29053673209653,-1.31725968688968,-0.593292810809709,-1.75335478874065,-1.48568491799099,-0.0679827648708665,0.0142259702453594,1.35247685719034,0.371031666890587,-0.9819312267574,0.608614890395349,0.615878252157448,0.453548994608258,-0.802395551129083,-0.512510691409696,-1.89495543807076,-0.484364945512291,1.46039803596122,1.56715392201593,0.939159150626033,1.87138933393185,0.997761926441365,0.324377168469933,0.525966800243658,0.0425098058919233,0.0946914148846677,-0.61688542638801,-1.02557756403901,0.830349972915148,-0.797559348109782,-0.492635777833913,0.819124511285242,0.592679738205577,-0.120478937731111,-1.12987238009615,-0.265534487869303,0.604513663009173,0.279335303506844,0.17258509557948,-1.29062388632264,-0.105371151421906,1.1287716642651,-0.674950607335105,0.128740159093462,0.802029538448774,-0.554967627891919,1.59385001500312,0.237471660100159,2.61671738722169,1.57686036392711,1.74735580359788,0.609999311455795,-1.19249545270655,-0.725047100404998,-0.96988158293826,0.0208181429995489,-0.481392972424521,-0.30300897117728,-0.123799338742238,-1.9381644674189,0.033834526380799,0.542780224611425,-0.252559511050846,0.658908289525957,0.223644610243792,-1.47704843494232,-1.88333981668795,-3.03454278545536,-0.677920528749414,1.9898639312624,1.12113529688773,0.764045922217761,-0.0290962142639816,0.744242141109017,2.32797139105917,0.593919293736975,1.0919368019705,1.91826595981619,2.19269034078915,1.29488173058025,0.459343814310429,0.846463373350588,0.239727783454564,0.363019605650201,0.554835875304246,1.12113877199319,2.16560667424481,0.612921046184036,1.17313529524996,0.520584722911904,-0.278100474108835,-0.103772276800504,-0.750406695178503,0.27081696045228,-0.462336543792875,-0.62507415213636,-0.72732982906486,-0.390666000892411,1.28367547714623,0.800128849936588,0.7721360134821,0.215962911810091,1.08657598787022,1.09834776754708,0.641531660467708,0.0663743977578278,0.876302020329081,2.29199449737572,1.68665041187524,1.93016348375795,0.234917220350688,-2.31466610284409,0.0355913999336199,-0.451594826436839,-1.44139986483864,-0.781959438135469,0.389821408196651,0.556552973182235,0.592555089780279,2.60230899957258,2.43431330138425,1.51483464493283,0.128605388159112,0.394623191796018,1.9789701854585,0.687326250989788,-0.863800422691574,-0.39595689716098,0.357482342209712,-2.41578485831017,-1.21739641975318,-1.02905861635976,-1.20979139609201,-1.68034998378155,-1.65571863256393,-1.69977065294432,-0.351509273187838,-0.795669177129915,-0.33884928556894,1.1244991098951,0.0149184863092601,-0.567232287682726,0.125776254661621,-1.24796186921567,-0.228976785991751,-1.24357244235114,0.757514790259463,2.85424802971853,0.631373886316304,0.0845523656108201,1.80402446397142,1.88988631378292,0.936262666751773,-0.595312587085664,-1.63699853171301,-0.690263559704741,-0.324430424251661,-0.135012981589958,0.23835362202678,0.474048453790618,1.00203521325353,0.823907872419821,0.0675516122731291,0.445659911557226,-0.704793147806887,0.487389906597454,2.54502698651345,-1.36380238946286,-1.87666745238925,0.613928001088597,-0.9643447835857,-0.813163218151325,0.857437150031604,0.984989945453912,0.518923160465182,1.76347481120701,1.45800622049992,1.94685976232423,1.73455162066126,0.0581158788432581,0.434288964130709,-0.431820454934733,0.298076109685058,0.671979651634605,-0.849216254095221,0.771431211179006,-0.416419563650785,-1.988703495247,-2.27477768783135,-0.40462145630379,-1.57516708862455,-0.339167156403099,-0.330850339372411,-0.659001397504188,-0.299481730402896,0.828245928710391,-1.22753354171726,-1.39497116735879,1.26079579857744,0.355786832236328,-1.40663660392898,0.842899155666313,0.447566975537588,2.18343499022755,1.51041922472745,0.402467215984009,0.888603779815888,2.08566445241325,1.6268241442675,-0.633898390895372,-0.987642958280837,0.593654331481101,1.46648450361644,0.245416461837265,-0.654755150610583,0.425525246146766,0.371918917147466,0.55686937204348,1.97221764146342,2.25707529573498,-0.759946017746326,1.26078337688697,-1.22934843149823,-0.473956638525211,0.0939718955874592,-0.799951143354394,-0.725039362766477,-2.45515868401045,-0.321100287145836,0.858247066712081,-0.958674895339036,-0.000115335462912314,-1.41553216546379,-2.35093469666146,0.403766020601,-0.754333789914333,1.23806860898438,0.134318881704026,0.0604971330047561,0.255736935681556,-0.576302581118166,0.680678563932011,1.60463594911862,-0.657428841361949,-1.59031018016682,-0.432889061648515,-0.399607028140585,0.438792820469071,1.4375965886804,2.62251027710111,-0.760171304447866,-0.434147553998707,0.75302878344155,-0.540044484112092,-0.237845903542263,-0.805909855538016,1.02869633736248,0.358741058291681,0.0819011379068827,1.76211250594563,-0.0472656328957998,-1.19988763041227,2.09420623855314,1.09357336096052,-1.29695328372998,0.760340312845159,0.624330361641576,1.16457560174875,-0.562741612277133,-1.17697728202817,0.284385053915753,-0.118146497994745,-0.746370672734554,0.40440313260597,1.68940671532242,0.55504000373338,-0.298504207520796,0.447313527871273,1.70997888865467,1.12499680596189,1.44349596656086,-0.441492647042306,-0.768606956870714,0.430951897287437,-0.532634071640673,0.262173401466618,0.523699642143443,-0.30086967147077,1.36807307669015,0.674400609417225,1.30928155013157,0.599867024738942,1.47121243981722,0.407172301925533,-0.270548137576726,0.485491679300685,1.19008439552329,1.85433869482769,0.287461845278332,0.369232169655019,-0.0553313142960182,-2.37279740685736,-1.43791000993793,1.20640563503366,2.32233213886927,2.57701848500736,0.63834880514614,-0.620703261538698,1.03073782640663,1.06587908333068,1.67479483446894,3.12236720609724,-0.645091103270808,-0.310775339463904,0.558022000229279,0.378997165249672,-0.786925996288987,-1.82152942346928,-1.01296595762215,1.19511752369665,1.12932278848218,-0.0160352268953916,-0.48295029391489,-1.33801146382011,-1.52636272789127,-2.08285922451122,0.143713946663623,-0.188142464277125,-0.0689569501864187,-0.712367813341553,-1.22065894289474,-1.5273323574645,-1.16142924657491,-0.261684758088218,-0.518908923415753,-0.644867875043232,0.635984130801898,1.87200817530371,1.0808523507491,-0.0184594428598662,0.871210940251035,-0.532270569060838,-2.54988193271381,-0.468547864853286,-0.386526599094646,-0.698576264930988,0.0557309595733777,-0.373551432098662,0.814367413921845,-0.263828335433348,-1.34681500118949,-0.482568248102134,-0.278047309384581,-0.154550750571035,1.00278324509535,1.62165262164134,0.826222431412536,-0.254139400849244,2.13661356109244,0.827017929471757,-2.29297034405107,-2.20321709293725,0.859439880073487,1.68361906709462,2.09296893451209,0.772161447344021,-0.707840739426274,-0.820705364069512,-0.870561134751779,-1.97018020145856,-0.284468581836051,0.549559442177394,-0.55919891570255,-1.66757338850358,-0.882677697411655,0.67111343903837,0.412864123002489,-0.029272815137904,1.16062278832698,0.672039437267086,-0.22202895359028,0.0923074998510801,-0.197193013887797,1.91574951186736,1.26771578479641,0.128952180608525,-0.481210849798307,0.453990538290105,-1.0870054903843,-0.452374877199755,0.594549581709457,2.198564370332,-0.472642512350441,-0.950849049904566,-0.159175314613066,-0.774502795688937,-0.695256999679826,-1.57461456492186,-0.323300971766282,-0.82060791897777,-1.90737610090763,0.0899890363825551,0.180012051115961,-1.50308648148983,-2.54359909742559,-1.31997455872529,-2.15532742047922,-1.17437855404766,-1.95408180783541,-0.842936016384253,0.712416753446575,-0.336155454361673,-0.224380547786975,0.755295882767708,0.352344854076326,0.0539818350360239,0.0359539678601263,-0.788419164531228,-1.52617557417174,-1.9072867956766,-0.650640723533066,-0.973626013824665,-1.40476115571503,0.127985241885025,0.844699646248811,0.830537935232785,0.507131876387998,0.731868361573961,-1.86965738570531,-1.97215016612437,-0.676320004538426,-0.107051156849619,-0.383711542426806,-1.2616586116939,-0.122681311324998,1.26589110014399,-0.57077215468058,-0.277385788028766,-0.00799692048563691,-1.62698703285827,-1.32779618806199,0.0993695686129764,0.823165391391017,-0.148229588123172,1.06803826589198,1.35846225025641,1.27418161262674,-0.720534887403059,-0.540242834239578,0.452426140210289,0.693355662673204,0.228425318408119,-0.979090424725818,-2.89415429353572,-0.746582440260833,0.672286005183426,0.640109472845446,-1.34848394057663,-1.09570534140843,-1.31004138793473,1.56671381487523,1.80305060345741,0.831641475965543,-1.38430420094973,-1.0052904462561,-0.465046810773682,0.924066470890365,0.513580475390716,0.37250669730609,1.09734567359584,1.17281489025854,0.893378584151008,-0.893782648123959,-0.640670911786446,0.528882631774674,-1.18902934856007,-1.16147760976393,0.153933984131993,-0.42715870246761,1.07346240301878,0.615788630162672,-0.481205002355982,0.496023982777067,0.472892315148174,0.0670323462425944,-0.297857220464088,-0.372658274583356,-0.135603437325207,2.01699341400381,2.40635403836377,-0.188212298630041,-0.872784330985683,-0.655833981591589,-0.212860194354,-1.0807493684434,0.863310060020688,0.760572706717202,1.55676061674839,-0.544625193356947,-1.30251072397995,-0.837999265173907,-2.30513411871035,-1.63596615248147,0.402682077339975,0.876773040177562,0.425004876611723,-1.26254951921928,-0.0881352830384993,0.885559497293938,-0.520643114798376,-0.573314260215585,-0.144807088280032,-0.311698406601094,1.02597519757635,2.22447314192734,0.970009273824247,-1.21719983717436,-1.61166531753151,0.038965060155281,-0.507859667232763,-1.43037111686424,0.987924268910726,1.72257997961621,1.02894701775761,0.0880771547979299,-1.32637167602998,-1.44911364875783,-0.100599909348883,-1.62263756318301,-0.143972220625902,0.457958060234846,0.51080807207799,0.00169863142530668,0.972962662134183,2.59955963298754,-0.208072873180852,-1.68254133147739,0.705832492838315,-0.244621365275274,-1.08372281364982,-1.56134000707946,-0.446132953559671,-1.18335647675529,-1.56404603618399,-1.57145134658588,-1.21152956140612,0.553798033799499,1.48640738068224,2.03675750507066,0.154568891882262,-0.117145156967014,-0.038218985703652,1.68565541033059,-0.712475004093396,0.7737440385838,0.622344005075446,0.257035335348189,0.764909189323308,1.87742075211011,1.55238909213743,1.43731017485667,-0.225939683228345,0.24721963824924,0.422818750930865,-0.763292142881816,0.89349798706886,-0.487291627813934,-1.43333523447824,-0.667047911356811,1.34160067092105,1.54649120847505,1.10610689905856,1.31658129516653,1.23201408105663,0.254682623518217,0.122271747122871,0.410053972757313,-0.905662185632314,0.273447201906412,1.1050186633435,1.11540847456938,0.588901642399171,1.71232405592028,-0.216008846849184,-1.07582626481301,-1.11678761630401,-0.697591201992311,-1.17872531051163,-1.66781068916999,-2.24206168456114,-1.55104241535757,0.451696396584795,0.0392976839466638,-0.899854805195573,0.82320499178488,1.79981842567828,0.818372593573014,-0.520268983039483,-0.621950389221051,1.67493365165614,0.667725627440654,-0.347749530293551,-0.390700896357762,-1.15068481230708,-2.70794726633643,-0.757166535438788,-0.342580230873221,1.24679833531709,0.860276815280172,1.14201205962083,-1.16708579818691,-1.1018831830748,0.569326694542624,-0.519514514751397,1.13596810922317,0.436715381929718,0.455414206503399,0.754956721187915,0.690408566671409,-0.0618041621234121,-1.17385119836043,0.530625713204538,1.61822770869437,1.34743401600889,1.46727557335318,-0.185120438993414,-2.23837487696821,-0.268209045403154,1.03932261217908,0.847740488322169,-0.761784546147446,1.48413138397786,0.891528701882182,-0.103992710729308,-0.723957448090158,0.13340358334762,-0.44165422536917,0.207588326990295,0.536671593958723,1.82940697445676,0.811624877150832,-2.27586150392494,-0.76841449909083,-0.609834115198484,-0.589935507915206,-1.52453236737355,-0.380394501338221,-0.00860673064856515,1.12934964840895,1.79778691814998,1.4200328397953,1.20656989399088,0.0250330851884747,-1.26387358455637,-0.230676282426281,1.83203804109073,0.802157633342941,0.524594969676907,1.68749090298958,0.353783512927114,0.507816240708796,0.774973338078801,1.06077150585544,-0.107053991102235,-0.248232758720507,-0.363937365119045,1.88958032038918,0.674020793803971,0.450938054741255,-0.698570243695263,0.238869141795414,-0.178956008278606,-0.467246267576409,1.75226896055218,1.95189732027288,0.571045043353939,1.09662740900455,-1.34041006920584,1.2788340136737,1.35001085867412,0.983706429944703,0.691764629692391,-1.76141364719728,-2.37980978411109,-1.91976858758522,-0.897270986679769,1.49290883446024,0.842831657862312,0.623571671213683,-0.688065850319241,-2.51853365963622,0.104085472959043,1.11187880814317,-1.02461682564561,0.412202162742822,3.17297901884084,-0.395192353742507,-1.88516870585098,-0.857846968921964,-0.761788965510739,1.04837410858945,1.39487185850573,1.08256251833522,0.253904117324684,0.400634987827946,-0.356784291260706,-0.12166320062109,0.963270129917352,0.325398096799551,1.02560268726242,0.50036061393186,0.608965217551624,1.41862442880387,0.517334144707071,-0.177528067333194,0.978678483894512,-0.00549784770630402,0.47137536547903,0.208484897443754,-0.770756535631731,-2.36605891952052,-1.38514922988978,-0.816437697443927,-0.703567773058283,0.160452862998549,1.38119135156274,1.34855977169963,-0.325234384767805,-1.83430243536376,-3.09999408127054,-1.4207393272647,-0.131965823115679,-0.789237075285328,0.869242936179534,1.94320143036419,3.34929069078807,1.03486892044805,-0.286355494513671,-1.02303350147655,-0.277944679015997,1.52111189265185,-0.694268427976539,0.0906474147751543,-1.80179882333798,-0.960293650927049,-1.49461060071494,-2.23988132220605,0.499917233379858,-0.362171644805306,0.636855684160891,-1.07948868774227,-2.81300770121401,-0.0800059673682789,-0.349940457768919,0.32022315993355,1.36258836554387,-0.0619550602547864,-2.44127147676869,-1.83627099402544,-1.15732258133357,0.730982170629815,0.969243456886705,-0.964234878233039,-0.136625718562585,0.733335097174298,0.137328236943345,-0.0137992635648976,0.412621932235663,1.48783016198809,0.202526019731069,-0.226140190758908,-1.71778313281289,-0.243699308790171,2.06538364668482,1.4296550412178,-0.670131606577638,-1.94737784002797,0.591834973394165,1.62104376258758,-0.481344991041171,0.00369052784381341,0.0871335202525154,0.109209430664373,-0.875778818434951,0.455326063175124,-0.249469164389305,0.215364963922417,-0.834773034563204,1.04698943897459,-0.95505443338363,-2.73083515265217,-0.702694440789624,-1.11825345402586,-0.621079005029429,0.102957058920217,2.22303992737643,0.689063999403174,-0.173447858231437,1.23101111467801,0.32844264328042,-0.127212655053801,0.964226597636254,0.949533284774167,-0.424020617057375,0.617997263003072,0.720775871134123,0.521790219851436,0.330511631540971,0.109454570586541,0.808985337539946,0.613046376617533,1.20242326214839,-0.0853569882310777,1.37853694675032,2.4057398647062,2.09867846914956,0.0616121400356345,-1.7861558123807,1.01543000639706,1.39190251803711,2.08384878757697,0.42542810729473,0.146898557424224,-0.335171132568683,0.0928967786788912,0.909040433336019,-0.797047779330543,2.05772433859432,1.60093727901959,0.767317382171339,0.330831023858596,0.718991776813159,1.4656348152527,0.212901419538137,-1.05095421200537,0.707959223325918,-0.299158978916922,-1.09755252794345,-0.617660676148725,-1.1080076269696,-0.0828100089269735,0.21982450006826,1.50089657023843,1.9827046837585,2.42785384812336,0.754242222909162,-0.829612204679381,-0.304117284961662,0.686911765469416,0.225704303175826,2.65350143996148,0.137049328870382,-2.25127496487535,-0.505343601296562,-0.0101529063388791,1.58603240325266,0.408146325490759,0.391106656473815,0.891090894576582,1.97019600212839,0.752139919203249,-0.246869551849227,-0.386288864736462,-1.24739340541041,-1.25020573478961,-0.933776492635375,-0.101664451184009,-0.154957999115125,-0.963569724419864,-2.80313111230133,-2.17153502177972,-1.10232377906462,2.50438514618538,2.1780915904372,-0.192795299589281,-1.39679054375283,-1.74562512694365,-2.60174533190469,-0.977262732203519,1.79991850639939,0.702414779232647,-1.14475916568437,-0.463015777528639,-0.0983430750255057,0.932482958565717,0.00609707728298203,-0.240373325203338,-1.08407070573972,-2.17647446089577,0.595686910925852,1.08845264743228,-0.558898514987342,0.170493089146077,0.788609567032725,1.86446395711854,0.178947408518074,0.35014424920953,1.41882647185719,1.62431335420082,-0.659448395267987,-0.408097142081393,0.364581096025144,0.0888903475331934,0.251459396075482,0.0337492288676389,-0.492455550513189,0.355102800330628,-0.286168040908454,-1.2124933485113,-0.713300538939068,-0.259057111692551,-0.328610455232306,0.50506688805135,0.835245699593605,1.22813502347697,0.0779616200399322,-0.645652618270217,0.721592567459589,-0.416083780459518,0.226667201770818,0.0655251534330263,0.78848037391546,1.56491900815654,0.0608279173854258,0.884869584492102,1.20206672215805,1.22445776671902,-0.880380038634039,-1.41924460892568,0.0763457439705077,-0.66774127195528,-0.402517363257934,0.703203468645576,0.839562309530162,0.259217182184103,-1.49371088223,0.20839408676904,0.326755056203242,-0.768741878827325,0.525701068826738,0.527678961440169,0.0498338984936738,-0.285928684582982,0.433855912511844,0.0092648321947722,-0.97220873565783,0.293750444882918,-0.184176145014245,-0.140305282790445,-0.156451137757822,-1.68409197670366,-0.85905913329908,0.195258833817468,-0.302446329702836,-1.51478574932796,-1.51156968290267,-0.3314036107621,-1.39552579839755,0.121705785422784,-0.375887053440808,-1.12103364474145,-1.36157265626496,-0.363356713519745,-0.389603703605416,1.71695885635505,0.717225053468592,-0.469728962575403,2.13895661410301,-1.32774286521687,-0.346331777710245,1.40618644091449,1.23509303731525,-1.15852610941111,-0.293552356453492,1.52205523626542,0.633130298614192,-0.750094801259889,-0.120522740908966,-0.177707403306417,0.945912353642229,0.504921131396798,-0.84116453107529,-0.0176881445508226,0.61471960892955,0.406494231531045,-0.884222772371753,0.768192643172566,0.629238078712558,0.406480875195481,-0.807786695268944,-1.00705395683633,0.447769157814646,0.144909846368652,0.126641887460476,-0.886300735303893,-1.53216614333761,-0.657051165225316,1.27286663297039,2.37655712809686,-0.0493049147554744,-0.58938916256616,1.37384477582878,-0.259936717617593,0.119007101360098,-0.590893978963083,0.668064332119763,-1.08658661630214,0.579341546303159,-1.08843202821029,-1.53674581681092,1.79020111399473,-0.766613554761154,-0.657608041026515,1.25177978795656,0.249935864612578,0.269984703633656,-0.020441822391435,-0.9804461928234,-1.75275751672752,-0.0676323506665412,0.489263480641966,-1.82683867282271,-1.78737323743996,-0.353988894046326,-0.525535288182133,-2.10538383706254,-0.341504119626406,1.31956589215173,0.969092567613271,0.0669930057308084,-0.00958462019194714,1.25801949059919,0.00226327750816513,-0.890209958911262,2.24181805180369,0.569827581697974,-1.57032432743517,-1.1988801881486,-2.36038305609809,0.164598475676837,0.300448493964308,-1.06075609224738,-0.0826901659206857,0.927882455999249,-0.83233048635035,-1.20437456880203,0.575706987635014,1.61323212869524,-0.00374313936702397,-0.0950731734408664,-1.44336851027759,-0.734106368169656,-0.790327172079101,0.572259763734765,0.285929393810333,0.810594237439429,0.723200620967678,2.52100550399568,-0.159633527901409,-0.993934226476384,1.18805588211295,-0.441166429314812,-2.38872979831269,-0.120051781744388,1.78665987939277,0.186481866417336,0.289933699519015,-2.14388096831392,-2.23289014858187,1.39340425253891,-0.0866834422053975,0.0756199453902241,2.42570969007433,2.17309814163592,-0.160586952024727,-0.114287712482923,0.273140049922114,0.781277299561252,2.02753747728301,1.15858708134975,-1.19970837840306,-1.78753338399225,-1.61263184739048,-0.483079714332957,-0.981338455850333,-2.31547449341695,0.80339615458986,-0.325252892831267,-1.12392588600839,-1.63713492520537,-0.583288652546223,-1.14091489323569,-0.779195922746924,-1.23761290484723,0.131995338092574,0.472987022528585,-1.11438890112314,-0.628221716468816,2.45361958048837,1.50485585943618,-0.814741624140946,0.0202830762059655,-0.0199833104643518,-1.549549878908,-1.73955043622972,-0.59820257260746,-1.18283820998058,-2.22254207746985,-1.16871044824891,-0.915089324455169,-1.34148823808112,-0.422567599299621,-0.548813236677928,-0.658915621607168,-2.09904432778605,-1.05739344242043,1.26841702555982,-0.985372232818094,-2.58550246723165,0.450937472435069,1.75034714782011,-1.13454663123392,-0.771400454289104,0.211040222864834,-1.78382056803766,-1.33480502495639,-2.56577031024296,-0.44701325902869,0.142409497603265,0.271915934989503,-0.902170136389871,0.314225034586129,1.34673781222854,-0.372077129029414,-2.87957593864481,-1.46970651018998,-0.278661549514531,-0.298786294450375,0.205979221800552,-1.77742194204816,-1.00351360694405,1.47096461812351,1.01280509544143,2.65017691278288,1.07271516884719,0.497463579514218,-0.20164455007554,-1.46520057613602,-0.353445423030714,0.512530619937018,-0.435384534237642,-2.24048259053956,-2.35624285052226,-1.86951750751497,-0.236480558315899,0.187219638212855,-0.0057192825592579,-0.883033259437789,-0.492044538123666,-0.957845934609122,0.905963782722183,-0.896999806566151,-0.588463878505515,-1.53459365187021,-1.67199686530101,1.788425586683,0.414505499763887,0.82216031880043,2.24101679541257,-0.725349025766368,1.01338757696612,-0.0614646637997699,-0.0348448585177486,-1.09940415143597,-0.83698603225238,-1.20455998639639,-0.720630722105422,-0.85536345100238,1.06953049891527,0.303663179470431,0.952291893645767,0.648920725409483,0.366299900606179,0.973578899707428,0.513953797999652,0.15039802547399,1.03954124140899,1.45022125175232,-0.210871873639227,-1.35838997053351,-1.52402526990767,-1.14198193928945,-1.93879314902104,-1.48161796286142,2.06136383047093,0.18781468255433,-0.688885559508755,-0.579078796113255,-1.22783294784241,-0.521365718659905,-1.65465694017607,-1.69023528712428,-1.97239755924722,-1.31444166469809,0.707698229799561,-0.674006490238293,1.65189295445074,0.927009087508618,1.08416294557812,-1.32601829634011,-2.0400656364717,-1.45412398226766,-1.63075020138408,0.21699072061673,-0.735011365902775,-0.440372112844741,0.0758459017671576,0.611280150890115,1.00845269084408,2.83375650817077,-0.470844534556346,-0.0601519809980338,0.572330142540757,-1.42400922270832,-1.23005147813329,-0.549678332861445,-0.897814101509063,0.413613595932637,1.35137778408498,1.23684217146843,0.018019192520597,-0.347878009315649,0.0669174533389825,-0.701648674569377,-0.681915338272259,-1.4899163541092,0.556614971449528,0.112068496769479,0.306108587728148,0.39297452937934,1.23385202285608,-0.192232320628915,-1.11501461115187,0.351413781933579,2.7641876869683,3.63387008453875,1.59966768446936,-0.0166931331902811,-0.0101627241173141,-0.118039219308435,0.254241053882368,-0.445538580277804,-0.720577770781879,-0.482612545129689,-0.656537639492371,2.12743728870924,2.46913033709666,-0.24256978559939,-0.71281793888029,-0.0766519029857277,0.653454133366365,1.54841717372475,0.146014301852921,-0.059106376872236,0.637048588563127,-0.821277313553166,-0.602645736838753,-0.75876356813156,-1.06311346736316,0.896254973486877,0.443840025026994,-0.513392529627357,-0.161057120872252,0.234405080098277,-0.908191754460287,-1.07542301171197,-1.20552845579777,-0.715972866253605,0.00499013570971721,0.356613835237607,2.14251548869581,1.02866433754045,-1.79479035620639,0.127422038091849,0.237079018540716,-0.524644602408271,0.176868223920323,1.14201657794727,0.363491373705222,0.325055675504689,1.21363277632038,0.189574679257054,-0.543687638059365,-0.437755107527698,-1.42377200682768,1.40859964934176,-0.474926163789852,-1.00145665418797,-0.396948535638678,2.05769002264414,1.04595584398901,-1.06756141161872,0.739915501022628,1.1476679796364,-0.113755335624299,-1.33579850745951,-1.88338417522574,0.443203197790609,0.653471786513987,-1.73988256319166,-0.155322755713965,0.888112400114526,0.428652137101243,0.771490556586036,-0.296511907518671,0.561322344932508,-0.173753298106629,0.424702424420551,0.0232730541237896,0.607664301059699,-0.380774559682969,0.433163939253527,0.758450352835619,-0.967873288962003,-2.48218474234576,1.01703145493205,1.67938080219942,0.734421135828134,-0.492043455035133,0.402566003556745,1.19356143586606,1.73905824620314,-0.0257906977164789,-1.36215641951296,0.557189722647226,0.894040101988064,-0.597193889988381,-0.0354156501748428,0.388436556766712,0.665241856355328,0.9853821394612,1.35988918651048,1.40611683894703,0.680843372683768,1.07822092811476,0.789279728271934,2.24552693449399,0.613479242411288,-1.35459687854919,-0.325839764321643,-0.31241413410375,0.732369324917333,0.962663692779442,-0.119128799317518,-1.49002636685086,-1.1255354808125,-0.819906884505681,0.348706801538182,0.748290121408547,0.0273029096601291,-0.155220547028185,-0.424282106437064,0.856309033099771,1.03144372192754,0.522420530697166,1.37474172254771,1.63246606009857,-1.31737616260667,-2.54450119293521,-1.7961455660163,0.790739944246588,-0.0888420935279925,-1.03832921134809,-0.273088351700837,-0.88179551922302,0.307050179599269,1.75261462981645,-0.224862163448411,0.540443544189271,0.382642814517664,-0.101823182643885,-0.403497541475171,-0.000929713481780614,1.67011792478139,1.648948196611,1.96229799527181,0.520019253964477,-0.743255479944883,-0.201868768357855,1.81202043486525,-0.429990087713982,0.532519369407663,0.464094423734429,0.0910669528099176,0.501701605680642,0.854705279480743,0.681514346957646,2.24084783251462,-0.0493792743380503,-1.76812254485131,0.46688877604538,1.17318737445226,0.48964228245357,-0.330942450077014,-2.13732450587643,-0.258410714763495,1.13496721521658,2.38263127579848,0.573635274205138,-0.355986595754706,0.216877348243861,0.0542462234457387,-0.294375021017047,-0.449285471716292,0.334384721773321,-0.89590926953316,-1.8930312698334,0.549502419848977,0.206235475531541,0.154411077461384,0.685596720103607,0.249227984856638,0.0412861343014731,0.261915495952443,-0.206639629448107,0.183750901823626,-0.294879929118521,0.367691283225041,-0.288287382858785,-0.965847068268562,0.711124200607422,0.789253860375289,0.279349514100354,0.0502261654073025,-0.785047643066954,-0.210136062456911,-1.97831979737748,-0.135108686891446,1.66813350704782,1.38243729862964,0.208641904026312,-0.571157649643277,0.271299610994154,-0.60989425545102,-0.285254004701092,0.63609339399293,-0.800512403281135,-1.0859126367373,-1.51600273331347,-2.18943033043307,-0.0805231753016271,-0.108878859971652,-1.92546149786767,-1.02123158552072,-1.11506642087571,-1.23461937437528,0.395978273805841,0.639336425374178,0.244157670200867,-0.179625683498365,0.226443509941902,-0.228045630919846,1.2228866003764,2.57558015491733,0.126572641098058,-0.154769107436736,1.3341330229845,2.57031508374791,-0.672177696910096,-1.07706860858875,0.336942996806015,0.0505211264624371,-0.362428625150804,-0.974152386641682,-0.264333044508437,-0.631115847216796,0.616068154135223,2.56106302050313,0.0762046078405839,1.06629762200171,0.781908416380153,-1.28958732314194,-1.60597055378036,1.3361144982182,1.79828934882464,-0.375483749869074,-0.870694854878487,-1.27909740246705,-1.65380914384441,-1.96403390343073,-1.11659040456582,0.0755397053815914,1.28029421862007,2.17205215629016,1.89307698898578,1.52045346995028,-0.721000080870899,-0.636960249988906,1.09624435000228,1.12334144195054,1.52358448683753,-0.167738105449272,-0.666353966166815,-1.7715896672477,-0.565673250332197,0.777432283611646,0.852580343968638,-0.424685893886039,-1.66348260563078,-0.345239118027064,-0.531672578834729,0.965832502049909,0.480883117366825,-0.941735706630202,-0.72034036826611,1.1001363331809,-1.08553195339218,-0.210380530801061,0.0561313720655449,0.985656275730062,-0.563167345038638,-1.06090888598753,-0.843815542242656,-0.712487747581965,0.308796840463913,-0.929117694220835,-1.8941552067422,-0.854017871097083,-0.445673478790729,-0.0172348410117633,-0.538575035653337,-0.562284026742026,0.599969394287867,-0.490221683382312,0.393542512932174,1.31027925609136,0.51573095053412,1.36005607552597,1.70396524203681,-0.464990836033612,-1.0736357695037,-1.27175692482319,-1.00279470374448,-0.821259668695513,0.765929778219567,2.6355077105249,1.20297966511728,0.725192505912428,-0.0162105460531314,-0.540917911443356,-0.511558275861289,0.121329805984016,-0.937610275007375,0.731331960375186,2.98158866624862,0.450634657971445,0.817290209644074,1.80106530169107,1.9655919149983,1.34442048236577,-0.951770368470481,0.138737887346947,-0.302188481494757,-0.117007228435199,0.587778583194246,-0.665928864560894,-1.87773810531381,0.728206586247364,1.8298359426875,1.69584507338724,0.736947690359433,-0.42931899190977,-1.44634996468871,-1.63297407689208,-2.70343600304474,-0.0653252277594953,1.75683135683841,1.26183003256196,-0.46138053918334,0.840366066896658,1.40098446055458,1.18671355972363,-0.0394191244432472,-0.392528898251421,-2.28422154405576,-1.10876786228525,0.562621876805417,-0.595790768788676,-1.05298776999717,-1.81669958785808,0.535585905463105,-1.07919836336542,-1.24600169448387,1.13975035322628,0.417434097772512,1.50187913207934,-0.118459425460096,-3.14936992268676,-1.18925876596528,0.821093489837926,1.73311629610767,-0.946852299700423,-0.993698577446944,-0.0747840450416729,0.92196321050912,0.53701739156376,0.946545887700101,0.140988205386404,0.105472102654566,-0.99742995899666,1.97865891499474,2.37518457675699,0.488933218658669,-0.183806408253376,-1.14559502736187,-0.76308506739547,-0.241559947822409,0.621247763390174,-2.6746675905125,-1.80531324302447,0.861124274896071,0.653679570106201,-0.852279301102482,-1.26792969087829,1.22326882822189,1.48323029409023,-0.235774674245619,0.368593147404032,1.22044031258275,0.353707635230127,-1.09832970706269,-0.947611458059123,0.142895580487075,0.746307351874085,2.00101155486697,0.465233885204258,-2.13728966712957,-2.30633042801575,-0.421221561814497,-0.798605751128372,-2.95919972997968,-1.07494024052168,-0.649031735239948,-1.41153548248136,-1.97127851045562,-1.59694720496078,0.793520744174011,-1.293055867025,0.0521766814246488,1.18444947908225,0.90676963683883,-1.86875593666741,0.868662228846923,3.07083848076552,0.0624846958014916,-1.2137718257277,0.187278340761507,1.05140352478835,-0.712507839227496,-0.707566157197301,-0.469187625844469,-1.21079386002866,-2.10757682396283,-1.5864322980874,-2.04558007249403,-0.838506090853482,0.415248126790139,-0.564125107899598,-1.18765901866097,0.336071191519557,2.53377078499941,-0.119554788341082,-1.26280353752423,0.304437418861312,0.130491490663217,0.10905400870419,0.618775652641853,-0.104387786414911,0.0657499219901415,1.08437815441059,-0.919915256930911,-0.730305772164741,1.06662864776587,0.36743763920438,-0.302554999443999,0.747755376569378,1.32157434216424,0.646905518405802,1.14915676119976,0.630202512408944,-1.3049519035821,-0.842893789483648,2.41721456711607,1.659583371526,0.306128321793809,0.142044458589355,1.00855831973049,0.682661135052878,0.856886173987463,0.804266985371868,0.956354556186659,-1.06309061129919,-0.729701813295454,1.61606365284665,-0.0273848705193808,-0.75017716350225,0.950364124896116,-0.893770072779194,0.0144623474166923,-0.749805546192292,-0.314216505561857,0.693789325343497,-1.73728807422221,-0.611102455570275,0.423437685376617,-0.476235965800471,-1.97694864526943,-1.03260427254326,-0.390022465036153,-0.953944512028351,-0.637997005993349,-1.38415743405912,-1.89947218157999,-0.497430700230398,-1.5977634363154,-2.18276257457165,-0.646980740523013,0.606666025196796,0.378714035235686,-0.0800350094577908,-1.02669690730944,0.576541445810991,0.487959560271207,0.125263873577646,0.830867825979531,0.71578342002637,0.427649325457328,0.398590358702989,0.108478423165167,0.35877837613638,-0.815814110612686,0.564724497515955,0.765930027105706,-0.0886278869396555,1.4444401638617,0.248754240974755,2.05550777905644,-0.826210180891805,1.97930992459718,2.71329451907659,-1.03097480734507,0.348015470795196,-0.818604426854455,-1.93235424136345,-0.029294964436999,-0.318007055484993,-0.853514333726242,1.15770541893856,-1.37465769957707,-0.958159871231393,-0.649665986891397,-0.197384669524323,1.51465163514698,0.597552994988718,-0.0192431679137683,0.0487893069169236,-0.023180338923847,0.68789188685266,0.809788238489972,0.175798040296178,1.15546380714338,-0.158119487642446,0.0056446672322058,-0.226966633334097,-0.601503452329151,-1.36615289248095,0.533696462951958,1.9933961121556,0.152120246061516,0.198446372050634,1.77106316203995,-0.0262602100790362,-2.33347894642874,-1.45001726387768,-1.0411098640094,1.05471887452578,0.608390608265189,-2.17167097321336,-0.805326909881814,-2.01076114386689,-0.939510513025495,0.418025085315955,0.494560068068066,-0.107059918017447,-1.38987876292895,-0.574254180079412,-1.27610258336939,-1.40323097117543,-0.238566834524229,-0.312786205286876,0.193780572032339,0.0675814354474592,1.04595600637974,2.63798113408657,2.70841282595452,-0.0991098778662782,1.74725694802907,-0.90478305959587,-0.529893767256088,1.45627369802557,1.89145813164918,1.57875723679278,-2.13542901686921,0.648320285856486,1.55512807421245,-0.655365995408773,-1.5020880404421,0.472491349569003,2.60634122859753,2.24013272777002,3.03943132309341,0.910110230150829,-0.0663686121568805,-0.805538740073746,0.464764398193892,-1.20284527252167,-0.666698611024989,-0.258496922438176,0.0691568854656626,0.57082573252256,0.0939283462147644,0.243667757970322,-0.848937009502344,0.0232656541469252,1.03072880787648,1.21527527373256,1.83073591128286,1.50042527788746,2.46620657903149,0.749043921888459,-0.148810682799014,2.46358377547078,0.325499675974175,1.75204592536032,-0.343255663125187,-0.60064912824648,2.34161977613221,1.72946928801051,-0.109248921219262,1.21020626061438,0.544862318336936,-0.616592717607314,0.991999228893943,0.179130362760998,-2.17915650145505,0.274422056578865,1.20186182104801,-0.498096598659204,-0.445653478352527,0.540614332296633,0.336991523565141,-0.977836615577022,0.210758829195357,-0.450111346157336,-0.29235531904219,-1.26157354908476,-0.0531797356184543,1.69607344821,0.300627623387131,-1.16154965614012,-0.0647878482373478,-3.35588013454224,-0.246383723680088,0.472444383385774,1.03905294547906,1.21765287271019,0.505053970838209,-0.00406530919759271,1.13093205082373,-1.00675515506196,-1.39074035299264,-2.10461205594014,-0.0797958846948151,-0.448574486265439,0.0488936466781272,0.393469433295935,0.249586178352741,-0.309903012352009,-1.6317286777196,-0.96466821138153,0.300850438258802,0.0728664648151567,-2.35829962990402,-1.4429480562673,-1.24257102689602,-0.725587494481245,-0.883043905153915,1.05597710351548,1.55459699684249,0.504449638519758,-0.309676018700958,-1.28768688501671,-0.422600077013912,-0.613483087815026,-1.58867512244088,-0.908484936957124,0.645154474279183,-0.847306605286149,-0.881569658437922,-2.02188428142992,-0.91689036954604,1.24804286119999,1.29109925361334,-0.705274431142207,0.431370985050614,1.30950548469509,-0.322431880019245,-0.774705351295546,-0.760864214970133,0.471272527912296,-0.0856357297713625,-1.81841098090144,-0.557048511402293,0.930253112496618,2.60494122127822,1.6054916858776,-1.09851318802432,-2.03886230302485,-1.08977285628308,-0.218467702485907,-0.966019989938851,0.0782444171543306,0.584222977540386,-1.54727377869335,-1.06544324292548,-1.4000325772536,-1.42535219288848,0.197019183143139,-0.34696060486452,-1.21600003352971,-0.811094304801913,0.00236662297556781,-0.775653467267744,0.051319864803275,0.604822446812829,1.05684541027168,1.00799302975954,0.921094513332563,-1.56644130112478,-0.805547426756904,-0.341562807603763,-0.0101239917419791,0.0282457243639806,-2.13821958008416,-2.37267531587552,-1.42327985630715,-1.48362028068649,0.056992548791878,-0.566516627576145,0.889913678417765,0.0569454012314791,-0.844433287553153,0.409333524956166,2.18248025668445,1.12983989827961,0.935028764846446,-0.212049636799582,-1.39014364942709,0.28968799200888,1.22208139614743,-0.385479767257082,-1.27789362054892,-2.61433214705243,-2.20241975336333,-0.518214001896623,-0.459854249421773,0.948716668739255,-0.0298205455574018,0.224664773341335,-1.15155090481085,0.046315577315127,1.35062421840845,1.2984999206673,1.10296570005683,-0.423285814474473,0.177111679478389,-0.606164612680512,0.734282828201567,1.22417887426703,-0.830664093043132,-1.06536661926623,-0.756736019894979,-0.168631501575305,-0.484349774995406,-0.801763318073731,-2.25670736909134,-0.0436148935832796,0.548381145804508,-0.120838476535206,-1.42221874638584,-0.503990668118467,-1.32543893004012,0.423972898942265,0.176883841132139,-0.72584407396641,-0.398932205114179,-0.722021312545637,-2.1789320222162,-1.85349129490369,0.870566020660206,-0.0450518129300128,0.308005836559174,0.361494472122904,0.840461614282932,0.549756937171507,-0.812227543396693,-0.852613298605768,0.561734892229914,1.14754551290319,1.27405769907608,0.914989259913566,0.0143592948661184,0.844936261754394,1.21832184205329,0.952001509099001,-0.585826567907777,-1.30321419782118,0.0628398754255913,0.0772985040155917,2.14709964824675,0.415533410359794,0.453480636942175,0.0665414081003035,0.872788907303134,1.79633983190712,-0.894156720383897,0.106249941152346,0.850121063541907,0.329443436423366,1.03658985239357,-0.796575901694567,-0.606821485933754,0.393122067665421,0.93932408511219,-0.651092471261391,-0.800668084916616,0.667930802114892,0.145452020603946,0.453302567966612,0.51580293068704,-0.474942185154962,0.449697799111616,-0.550436924518519,-1.30176497875508,-0.215834342884383,1.26205298737776,-1.24046617358701,-0.96676185200812,-1.57168020108007,-1.11939165818961,-0.610097122766466,0.623794256425814,-0.334009565019415,-0.29621241561326,0.269438832602113,0.593143558179669,-0.907355872324748,-0.841503522472652,-0.236759486881211,-0.472518322842156,-0.276877883364234,0.391439455614224,1.89072835829246,-0.133378654324176,-0.315745328869245,0.79288523253265,0.602526591043765,0.429602093725605,-0.334239336984477,-1.50369357347418,-0.255315948365945,1.66920519838685,2.03807270294137,2.21789607562727,1.71372833370391,-0.026028978632647,1.61883432963547,0.711468256248938,0.301706482152525,0.26529899216456,-0.1929022972571,-0.996282260242555,-0.234375652230093,1.19303378279439,1.12411347866866,0.785573875459955,2.47741447669542,0.83875168394516,1.11359282629363,1.4331953542518,0.923080574898559,0.588133969984986,0.276820010028388,-0.131311007765569,-0.729405722477506,-0.310222567996745,-0.693137349435288,-1.55003042314121,-2.2754102781058,-1.39878334218275,-1.0160597103229,-0.711469918131702,1.15577830397174,0.849772420302221,-0.415308060040396,0.306974960624461,1.41697742310185,1.44915499274484,-0.903024435011605,-1.28514737056926,-0.99583474418722,-0.274001029344282,0.0955236923871609,-1.04018775876796,-0.911774814825802,0.15495730736625,1.83390792078763,0.839615014884394,-0.374308374635252,0.268888519422806,-0.801063849258201,0.382947272832992,0.000606527616704489,-1.05543704943914,0.219457700747463,0.76542053400809,1.74734850196243,-0.730011644627029,-1.50692965267942,-1.27269425877752,-0.54643621203006,1.33073649500143,-0.392483687043539,1.02388372833945,2.57955479905579,0.485528291883469,-0.96204083800769,1.25163318409994,1.71650237492611,-0.0468837990040849,-0.52568416406333,0.0556288951656833,-2.19523797209551,-2.25341165378235,-0.604328696390466,-1.43849489749883,-1.07086426119201,-1.0564262663186,-0.737143799166395,0.645852864254068,0.504821633839719,1.86207209687277,1.43936959366038,-0.457477599654814,0.280732679684822,1.10818298853723,-1.30560570008182,-0.517326923000104,-1.06290328714438,-0.572437548224362,-0.875509713143839,-1.04699538775082,-0.725547804307623,-0.544668755150937,1.12418632137433,0.27064785027016,-1.05431515943526,0.325216389920816,-1.58234285274424,-1.34060234032981,-0.0577250406762575,-1.51766259264931,-2.3630226173291,-2.75506943496958,-0.109618377926431,1.66802305463015,0.263595962348215,0.350909721554983,1.34396724168588,0.194426327305341,-0.284045983909197,-0.176857908588007,1.20205021361574,-0.306574321603245,-0.835380351523668,-1.13607420274861,-0.296696239071934,0.21621835419484,0.33901663084386,1.211721091056,0.95398489717817,0.698442886938122,-1.13423783115617,-0.626087517272617,0.33843652000324,1.41876389594589,1.61868663832939,-0.793209337214229,0.448784404975214,1.57251251819801,-0.388488801987444,0.392412267305051,-0.784771746588201,-0.796812528999533,-0.476424456972016,-0.281991699352173,1.22012234237221,0.590590827394063,-2.9760314239668,-1.92644095435801,0.664786566837823,-0.0819820905381187,-0.643305358180807,-0.151175143238265,-0.578907544938103,0.629712177979702,2.14065049761465,0.197459852703686,1.10538086745105,0.779239700978456,1.26435399927194,-1.35864850381882,-3.00747967967841,-2.75885329310269,-0.612196579297643,1.02391432010154,1.40042609576514,1.63266260668741,0.0170052661218817,0.895903521477964,-0.331990319696162,-0.719921234496409,-0.676805711366657,-0.0833168956833384,-0.223743498225767,0.259114730545756,0.45678982930315,0.531552191572604,-0.301017597153088,-1.11176526621651,-1.03258543256143,-0.375465519504746,-0.405976638409483,-0.28492654145183,0.851940089198419,1.41240050323282,1.35497292353735,1.00797799085504,-0.196532971947537,-1.09637060929687,-1.30729967802252,-0.986227201246384,-0.914615223079408,-0.324147192930069,0.119728924092259,0.514252130120378,1.01343145862628,-0.665676510750821,-0.683283981537689,0.192735444792273,0.387996417882429,1.17212408468117,-0.196385897019983,1.55927343309623,0.647157676523154,0.624921963841265,1.37387998432372,-1.21487225070031,-0.371711671870978,0.228923711727712,-0.381519298232527,0.123058360561338,-0.140939561021171,0.0384218215786593,-0.280305929148148,1.06185684399116,-0.114611561098317,0.376035962988008,0.649059093253655,0.290358745477689,1.5253247196278,1.43196072077541,0.468475931930196,-1.42358179239476,-0.650594338342447,0.110494172437547,-1.31334253468203,-2.7907175264871,-0.00641285646813405,-0.452611106491652,-0.694988971764458,-0.950237909474862,-0.316715268698245,-0.187478262456856,0.167431568719584,-0.638671384060592,-0.280504669743575,-1.13405937669671,-0.0404762221209095,0.797134768779705,2.32781292944425,-1.44960041940872,-2.02842692092275,1.15527344244312,0.594156626223771,1.17899095261573,3.71591085131436,0.26776926600945,-1.0755562036819,-0.695644468423055,0.111676447897649,0.243503541442193,0.911155077066482,-0.351418849599301,-1.71386934527405,-1.04534825897536,-0.968004354823609,0.64174548896597,0.0462597643375028,0.911463194588904,0.575003396695526,-1.30270771995331,-3.5304884097764,-1.28521133979777,0.507722032048642,0.173483605492878,0.618682739313647,0.860016148538971,-0.339924661066203,0.313710055930631,-1.76322667031961,-0.948811367449391,0.121614953079969,-0.843834978154178,1.00665978036691,-0.809552382135476,-1.63554581440654,-2.39130804701648,-0.838231593227041,0.0904792269660924,0.91953114528042,1.33213439891951,0.565190226174527,-1.13567998848342,0.542449472188284,0.258204801291861,-0.182471460414893,-1.04830577414684,-0.837245601994388,-0.0772196220071379,-0.271459974965032,-0.403743550543027,-0.277132349506304,1.28807265400416,-0.546663183754689,-1.19188681636789,-0.241112916099195,-0.326026197568441,-0.0979451809197949,0.708613045680099,1.67027051075934,2.10604104842801,-1.81701950616206,0.0839767279783656,1.19306113150992,0.943171110667487,0.875427305582201,-1.74015407603631,-1.56528703970557,0.326433394389129,-1.19326688106912,-0.471691539733697,0.48387153063583,1.50049102021242,1.15400160650962,1.35033791114991,0.49734904796091,-0.587082910267163,-1.18087657480618,-0.478155056733384,0.306819569804629,-1.16713189220736,-0.246811760197015,0.750076702271452,1.08648927469679,-0.55861378621124,-2.33162412725118,-1.55236579274748,0.287995089983595,1.08538862927642,1.59016357254674,1.89862680819024,2.09848787072178,0.262380046807263,-1.38550342181545,-1.45693218223792,0.391392298958887,0.211216819596145,-1.43483681612459,-1.57146973714707,-1.11704579982269,-0.266179673785622,-0.746402894237684,-0.312848446577372,2.01250272326099,0.616263751710188,0.912945762196617,1.66519347563273,0.0419559400563131,-1.11999806928905,0.117976122314384,-0.935192369077279,-0.721238428645892,0.289295857015004,-1.08876643688738,-0.416241154049485,1.99778674703554,-0.174562501976762,0.332929040190505,-0.490296166240231,-1.48803594247956,-2.14212281728807,-1.47873795296888,0.0494059113336508,-0.15383984747682,0.232018721071313,0.377115872300947,0.0360302333034126,-1.78784552672909,-1.32085192432539,-0.694711198132546,-0.351011506613694,0.5050158142486,-1.05239493826356,-1.53085901217078,1.01385065684734,1.14233296716486,-0.73106722826165,-2.72237569828491,-0.867000545089458,0.582792808069171,0.422159673598664,-0.892039960675152,0.275239170766655,0.48950792946795,0.761642456602996,0.804119149117626,-0.521417546765407,-0.636291998719599,0.173256961168032,-0.0423890569626217,0.946216190713103,-1.98020806251044,-2.07353028803054,-2.27348136232351,-1.39943685016258,0.460539779027353,-1.6959139970673,-1.11833882042078,-0.211727496709506,0.984377118504486,0.127893435561215,1.3848572399821,0.448699561655021,0.643960384678653,-0.5251959856718,-0.355846317808087,-1.81723612844035,-1.28824482325612,-0.548080378156989,-0.631438787752075,0.0066430966989402,0.467437420223462,1.25205969149363,1.71921582749891,0.51587465599734,-0.552148456022181,-1.27157742267842,-0.130733080695383,0.272327738918738,0.541610336767504,0.329726770022895,0.677176491265876,0.556203437680636,2.76121624661953,1.43918929726196,-0.991452986311632,-0.389933273970136,-0.424033302669324,0.0104994559903444,-0.33041708399257,0.284149325180018,0.231413083756564,-1.02220135010608,-1.25436191806938,0.0638940372943435,1.48206914461487,3.03083824647621,0.104323429983488,-0.696476329205696,0.0349745158412519,0.933299303525978,0.324642948570257,-1.25742360032819,0.444060254486021,0.263994911605711,-0.505674215328985,-0.890217342654092,0.0537187458050861,1.06681526777678,0.273622227345233,-1.10278435607826,0.826010241003288,1.56596434513289,0.930733922860815,-1.00817913211666,-0.619590662118431,-0.0776462883271894,-0.536174999801531,-0.613605710131408,0.0820897408867644,-0.773088053669382,-0.58842920724138,0.216770162388674,1.32281249804337,0.491904753870148,1.14550493742846,0.259585590802374,-1.09754390623209,0.315860247563819,1.91337270733785,-0.113539991640236,-0.277018025359271,-0.96157667113105,-0.261782649146216,-0.352415689081366,0.219066360862672,-0.785609284023307,1.08631952694946,1.03039817709345,0.786156793924333,-0.604949064828257,-0.122457550486303,1.94901470866177,-1.13992351200038,-1.62982865382954,-0.804522410959613,-1.92776080949536,0.816318763483967,0.16034131239402,0.421718143133761,0.112159891181483,0.711355297673931,1.74924949446726,0.164475880658908,0.650468383542978,-1.60998856203199,-0.0151006943356373,1.90819736716502,2.48559667017606,0.813001627173405,0.541374632286493,0.211069835123829,-0.0129632673110574,-0.132535898490696,0.505809281002573,-0.357770778826389,-2.22239483521545,-1.79654102918797,-0.125268815983868,1.28637323354531,0.115219402194332,0.278004074113117,0.0513853744247702,0.578552388355548,1.47264321100515,1.50514372855922,-0.873074258931095,-0.83758355001526,0.0448691542972008,0.574917173086329,-0.18537576208944,1.07446046223132,-0.630069139396177,-1.0518476591154,1.59738597619801,-0.0991692394592336,0.47461957414171,1.36340055086153,2.41035296075907,2.57165771944637,0.752162755323559,0.387274115596856,-0.15197506189572,0.435486459916341,-0.700562521257499,0.123434652352364,0.0511554903867978,-1.11452220338002,0.564000761414546,-0.906941430293028,1.16626863997402,2.32906765121275,0.534196393477729,1.23016637568252,0.344758575911425,-2.00940051743059,-2.01382926473195,-1.89667482160098,-1.5472127673874,-0.980957950619307,-0.219836216737331,1.05783054231578,0.699578994742393,-1.0025640965453,-0.481901374222509,-2.08435699455057,-1.73418475084198,-1.79720955851666,-0.91334845388125,-0.242149498063436,0.0816741023268975,-1.92161599924604,-1.31115845070311,-1.07100998297313,-1.48931803287854,-1.29316523182908,-1.71398387775332,1.74480460151003,0.150117188497171,-0.498375751193692,0.54068251391532,-0.186268231842094,-0.693660572807629,-0.28595038352475,0.972956567411682,-0.300250950129423,-0.408446865998044,0.145677500284031,0.42651490257752,-0.028476866852336,-1.25106395024403,0.399982969833922,-0.558428019604924,0.601730225763845,2.39859048504737,0.980817187560444,-0.78388542830083,-0.937539750843266,-0.274712405245213,-1.33502790473643,-2.30913550845629,0.982352970211098,-1.21715445079531,-1.52184328036058,-1.86835267951807,-0.982858031457602,0.783178379019884,0.893792504003833,1.44412365512436,0.166197703069763,-0.81814661268024,0.242074724510454,0.0489043438970438,0.347961506501926,-0.166022985657502,0.769294828989158,1.97225143910355,0.811273898650375,0.0800207117514441,-1.10214932312015,-1.37188390520069,-0.566904900534162,-1.64452686769356,-0.00234069349618782,0.754881437551763,1.90393715745968,2.27690818955949,-0.151806076259946,-1.6222985686178,-1.61909121882604,-1.53353633339785,0.110059280338324,1.28868257526512,-0.343913005250828,-1.04964786943852,-0.597943330224243,-1.5035084252355,-1.56847347746219,0.315535719466992,0.0957991200673725,0.159480529094393,0.168013544226506,1.31101012717199,0.734304324112546,-0.940413118454899,-2.22900306742804,-2.79245973988363,0.769763951153297,2.43600870103194,0.275664407863719,-2.80664376561765,-0.52025820066651,0.135089598618869,1.49744579311264,-0.190189080107812,-1.04631158588785,0.073255702504012,-0.801075396311163,-1.21619179071487,-2.16661793565341,-0.247351512526834,1.08276053559267,1.22484716601775,0.247460100816092,-1.14033014097482,-1.29388615845434,-0.80787676557929,0.515871264416176,3.32515762321854,0.656032914632018,0.713196472211085,0.505816837433181,-0.806340489638161,0.0958834155861545,0.0941259596732681,0.783282152198618,0.109676410667709,0.603785683512614,1.87066392558808,0.956224215016847,-1.22648517455025,-2.04682241465792,0.923030375637795,0.510904258994368,0.0062067209039581,0.283112954472758,1.68989455814953,0.979896809967294,1.38294162811144,1.64327153186106,0.389615058061627,-0.839670408914315,-0.697934822618078,0.592080957490348,-0.377413340981772,0.139822914611298,0.0315846246035183,-0.94472135298934,0.811341878718704,0.544702378633397,0.145726553094859,-0.127828574307332,-1.60897908178521,-0.203773636396057,-1.23128501187389,0.136568441070594,0.281318732533136,-1.78705354992091,-2.35652410961654,-1.90071263644483,-1.15471266675551,0.0383923433238361,1.85635966887965,1.77981852174311,2.50983604289302,0.260923002516973,0.413161403167662,-1.04851255241861,-0.538311639745298,-0.522966095706106,-0.437311172063088,0.601427979837667,0.613199635209683,0.562872556802795,2.50635914440739,2.09917155872483,-0.494712290120581,-1.20028078725201,0.0432898373798368,-2.10881796322815,0.254381783350408,0.533805447134928,1.07186699053766,1.44440485621928,0.864542479842042,2.15484177756452,1.13148023478331,-1.52478391752025,0.118559750058275,-2.57297755636007,-2.02270614061813,0.136159891204826,0.500168498905129,0.503630506010879,-0.064739535759672,-0.404949821006309,-0.0749143614925631,-1.76058931322856,0.00678010352078096,-0.27747782437508,-1.37696014565985,0.50782430541413,1.42538107850475,2.49338027211037,3.12363361679084,0.711967725860751,0.374914138002047,-0.874579742073724,-1.20596525705819,-0.357302891966766,-1.46747049132076,-0.211234721600727,0.682619201932525,-0.921046438753876,0.97853030929885,0.175644794799865,0.772431304169642,1.77004056173824,-1.63528058420157,-0.391595673411143,0.421732381312521,-0.680170847678144,0.35095874006624,2.20034455715279,0.327807397354313,-0.988801688473684,-0.073643263809585,-1.08325702852267,-0.486123944396142,0.676939432006657,0.828651271699986,0.136463559404288,-0.750767080691015,-0.903458782904073,-1.17928168136835,-1.93268108308428,-0.815699246570664,-0.507142179549947,0.494722919512656,-0.541172724395472,-0.40737460600542,0.992519730432635,-0.0900356577972453,-1.06010084536088,-0.161978924029769,0.230183081081606,-0.0963094519845945,1.50675848955024,2.28985623678923,1.27983622915489,0.566815085966131,0.281501021204822,1.59439157805635,-1.06048112329012,-2.07373117558838,0.474979385521705,-0.285074716266885,-1.56949432914997,0.962877988822564,0.0596775515171888,0.0877889674642915,0.988931225687098,1.67464948117973,-0.082643020417022,-0.0792055583896552,2.25879216642879,-0.0219958130056088,0.574987473700995,0.481472062876005,-0.43792941470689,1.29726572126924,1.28874619040791,-0.719958852056408,-0.947253272766572,-0.889232161980504,-0.673823340098892,-1.53770702604761,-1.24022645766214,-0.432643410070832,-0.365696520433912,-0.28287413651105,0.702705828516775,-0.743898077933957,-1.39066996245583,0.359231112460483,-2.11251366983095,-1.09045675700973,0.788888446652889,0.83690799284718,0.492300932680573,-1.03992768630497,0.321769186894687,-1.20310940409676,0.439657255731831,0.11161666960879,-0.257245515141865,-0.542923992923864,-1.04843822422686,-2.75617827638689,-0.441121815967183,-0.217519962530536,-0.690093676922263,-0.586356416744419,0.00548018188245686,1.17504607716064,1.47537222562602,0.114013396752708,0.636729735099498,-1.06989057074785,-0.879477017377948,0.124066000891497,0.679919665954732,0.259419706057326,1.12763424462414,-0.00762725842615752,-0.00897893105617292,-0.27894110265458,-1.2856631520027,-1.3368747677723,-0.040331562878149,0.546873278807749,-1.18288531428924,-1.35273997558242,-0.913408985471289,2.20009625343086,2.33042035289499,-1.47404228088349,0.972109806710931,1.39691491257944,0.8792095948058,-0.286991568684181,0.0569398176361344,1.68387198203426,0.819043668981977,1.15735616603862,1.35546203443458,0.40229448022278,-1.15979187058409,-1.25537415685514,1.10102826776795,0.234484716987949,-0.913691836556575,-0.541519514960322,-1.52479742038543,0.0691125405253237,0.440890348120616,-0.859775400651347,-0.928373366262758,-1.95269560220384,0.599665960188764,0.984372242720132,0.298721929456866,0.400654853447172,-0.504142103954839,-0.458706023241186,-0.0593206729712685,0.0189576577387675,-0.997795285117989,-0.154327150708124,-0.564507465754634,0.556767708053704,0.570658292876957,1.5922736828882,2.25877666770054,-1.43964179901794,-2.18220610090219,0.572612789634377,0.0254606490895911,-0.250099588759469,-0.161185701170244,-0.678620664599718,-0.590873966333083,0.947165374198715,-0.0185553333035577,-0.798299453597651,-0.890237016122462,-1.4771567463113,0.0595130468301643,-0.199229852138262,-1.54808026830799,-1.29125476034577,0.0659295397503742,0.351257759484775,1.00385227573165,0.990879400409955,-0.820087389732973,-0.166898857976903,-0.851750757084355,1.28702857424202,1.39658230214373,-1.80688251183808,0.0716171108648549,-1.19850615074937,-1.16013095953169,0.674894511414184,-0.22232021287248,-0.583516018371659,0.46039774831315,0.22752671457455,0.249365276382838,0.783501355485455,1.2322166089865,1.17678060069684,1.73832190455433,0.0865597429961549,-2.35571133959795,0.306185751880255,0.0442396407883675,-1.03212304250485,-1.68878239406568,-0.0777285227627915,0.895799311126799,0.460337382691376,0.134021755494618,-0.212734381026572,-1.12856562919239,-0.83300440415969,-0.391670008680655,1.44054322379648,0.0306929387103478,-1.32045079920292,0.72650332586195,2.38790742469714,0.605971760671175,1.08429116110862,-0.860079363217483,0.219547849366371,-0.368440466682139,-0.422560098279821,-0.826099946926992,-2.27830787400875,-1.30738687231303,0.730932884837323,-0.778531933353551,-2.65630679663289,-2.59544250499002,-0.551739290856172,0.269473086145714,-1.45807888338007,1.33859390323429,1.11070601381284,0.0675293469552905,-1.25812691675063,-0.825477748493351,-0.98785815103822,-2.41557927057412,-1.31421136319649,-0.981772993899376,-0.362557287799783,1.11363562693437,0.920385983972625,0.669311428910531,0.0563204927470267,-0.526370405701588,-0.0855938248376069,0.450844348545613,-0.305720534903481,-0.946442811329197,0.736162804507433,0.75714191090495,1.5977536566323,1.49504116508834,0.595301454802554,0.495884779461137,2.07013744146471,-0.477645232848814,-2.34756473161587,-0.874287128334622,-1.78290845996536,-1.44217456650274,0.183241167156343,-0.639257909746119,-0.923721083629589,-0.0202505455158023,0.440068958356989,-0.665051083528029,-2.08948836958875,-0.167440682985827,0.413838027095621,1.46056788526156,0.36235747410212,-1.48456831533175,-0.0100975085355102,-0.151858898180574,0.826040502138101,1.15458958353593,1.93551124539039,1.4072646459101,1.64748010715106,1.58840473022694,0.561788522349882,0.645686181508651,0.414465405337264,1.16641769370099,1.02432138985357,2.10945737201343,-0.556526786786291,0.0502694884747817,1.91721979829656,-1.02973778685964,-1.21051448389223,0.957825147997434,-0.964908224325606,-0.408884526059128,-0.706086000727983,0.761441932392982,0.123653264803635,0.337724874732973,-0.218207446512571,-1.32424660374873,-1.60993049747265,-0.0142587445984229,-0.90417290642988,1.28191175479591,2.53350022385649,1.18952131641139,2.06013278545148,-0.687931337817766,-2.63975032592397,-0.131631692574802,2.01271080110163,2.40642422525009,1.85467646707271,-0.0204591000680404,-0.362201908474783,-0.0400501858313976,0.711136471918238,-0.246061183716906,0.399336382342344,-1.02404516467878,-0.712959326124703,0.250558209576742,1.52565905714573,-0.811343643214177,-0.933925536993114,0.349794626603022,0.151916957717355,0.65484318395748,0.984934093199294,1.00216798589936,0.878418894563343,-1.71287247712227,-0.47612085931385,1.29467177919604,-0.120203009534884,-0.334899969890915,0.850355253661265,1.85436516244885,1.46727931017608,0.429787244430655,-0.109219975128685,-0.188836916742266,-1.99728624808891,-0.0380455124546842,0.0645229101245536,-0.162731151793319,0.358345681111621,-1.04128576699397,-0.365924296128999,1.0572774723132,0.581604012877957,-1.78798623401778,-0.0796012577575615,1.4863981357035,0.957092817807025,-0.868337255777477,0.425819412596298,0.595916198359075,0.55735132768341,-0.0117714628646243,-0.692403269896382,-1.35856267460602,-2.51433492763,0.202703406867694,1.30937742811607,1.93127164069593,0.764995962606393,-0.825104554002874,-0.0525248026630836,-0.869438264594923,-1.71068038986836,-1.35346482333361,-0.712658160893181,-1.32715397634182,0.330047833811592,1.89255852776246,1.84795188086203,-0.787310071372989,-0.354687359399025,0.06439256010772,0.0976354915661164,2.09313960678105,1.68574037930128,-0.414204296338504,-1.00722718798176,0.193642113086304,-0.798225935724431,-1.21465806401083,0.506674370165277,0.221665657551786,1.13473637482808,1.39903223699082,-0.775563738116937,-0.823692365099156,-0.487000817846874,-0.0859216592440895,-1.37853195935707,-2.28037974168689,-0.350813070502106,-0.777616116413771,1.65140946312023,1.74070916996938,-0.456159250345908,-0.468155737409503,-1.98831552457272,-1.00651004979015,-0.00237980069991655,0.441540073540319,-1.72795537844833,-0.0278076825482597,1.02763059982805,-1.98993712415236,-1.25144420457875,0.268837788494037,-0.623503251885499,0.833000863883854,1.21480577008629,0.169660724630589,-1.03630117595347,-2.89265095992422,-0.53603913351563,-0.948341491533749,-1.8415947357821,-2.39213914581077,-2.17797079262586,-3.33485764660802,-2.17169659350926,-0.597061821034337,-0.220709643788651,0.303741925051257,-0.292759191034404,0.932141753218436,-0.763170594775003,-2.15104489470199,-1.97255220516475,-1.15077442806406,-0.366125157917696,-1.70220968267774,-1.11341431124764,-0.0914291413202667,-0.980585533287714,-0.472318767310916,-1.00342201298183,-1.70743479263602,-0.0269827955111706,-3.1274059651169,-3.25267856391821,-1.76986665865687,-1.79859495735438,-1.32599705840175,-0.871685706263276,-0.25178894251495,0.83716566483283,-0.0404135101229909,0.194522078878514,-1.38686036046288,-0.672954285338424,1.14616212485622,-0.267636463824882,-1.42007950929577,-0.776993704576127,1.13934804767133,0.119651317806149,0.289589975905511,1.35155185980693,0.502789701090643,-1.71409821502569,-1.27074841801743,-1.48464295231713,-0.111877934035578,0.572394731727594,1.11249063236831,-1.10477488843767,-0.28959829149374,-2.00623286265967,-1.47100594754386,0.0289612469403032,-0.143126873935483,-0.43026678803173,-0.33512774049049,-0.74192084101792,-2.31558447690407,-1.67176914667901,1.04013576760989,0.78740058123101,0.167969739716639,0.55683838618467,-0.772062065972864,-0.274714338158452,-0.101706478127483,1.96350600845597,2.22873414866011,-0.497392433521017,-0.38728882295838,-2.35991526480244,-0.600362885134375,0.94302641240295,0.962707121041133,-0.580073293925922,-0.463468629258791,-0.78495139296832,0.636674238402889,0.989010685650567,1.33640234882821,0.642043788907898,0.296465287419989,-0.937076204510925,-1.44340637018572,0.372603051609495,1.41249009955593,0.647903362094296,1.23490053884983,0.208873175329507,0.321074549153656,-0.25625323446222,-1.97248842169157,-1.35213291834629,0.154073283804784,-1.14295160929354,-0.104368817378695,-1.09950100652015,-0.140577946832032,1.3736349932131,0.0604401430376868,0.524927989415968,1.4378774311282,0.306308586632281,2.37773934906718,1.36855120911408,1.39905277457584,0.842370677570533,-0.713500925231216,0.479958819291773,-0.627220422937544,-1.46455907466304,-0.485139629691974,0.890855866393511,-0.311684529546291,0.729173349556966,0.382199923196859,-1.7708430847125,-0.826889247801998,1.90565264781302,-0.296899575980565,-2.29863599041411,-1.04137860775447,-0.749760150011139,0.245847028085544,0.00177531521558066,0.0399013638707968,-0.0694523648602359,1.81896019925667,1.09716638519709,0.620151122422874,-0.878763191436423,0.532539458778866,1.9174004561108,0.552845495167693,0.726153575403705,1.01938464965888,0.853376597954151,0.359456346447338,1.64468677277588,-0.214941773769793,-1.2991900727843,-0.0306348653524027,0.587373250828582,1.32365510138634,1.20113298172395,1.78180423864386,1.55561422213471,-0.964978348253039,1.4878291593386,-0.121501706085407,-3.2342939340137,-2.14653553206578,-0.949879068521389,0.68854439716595,0.499648893689416,-0.458875890363878,-0.545862306369927,0.101500366943359,0.602478975830526,-0.649752397012182,-0.730765268785909,-1.16515827401741,-1.90530043104076,-0.659694151548983,-0.538052895456965,-0.0449482769766886,0.915547302605657,-0.0452217508674284,0.458878598203961,0.0772728386353094,2.88617723846863,1.81533194983429,0.0429352569548577,-2.99726257397268,-1.09592005282152,-0.849544232586148,-0.164131758020222,0.428107034229943,0.261919463972647,0.715238933035685,-0.380305961246134,-0.105989567592994,-0.482149905520227,-0.37599499017712,-0.980639562665847,-1.09416906721055,-0.671924891189243,1.06255821992228,0.721307912404501,-0.0149422747248605,0.603577138665039,0.634054432034288,-0.228729462151024,1.23750192969788,1.33253790000319,0.0138085554352554,-0.00368031523513973,0.13467511954488,-0.687869019618376,-1.0591622456576,1.07106746458891,0.98274167999055,0.461674365636815,2.22713646269465,0.593612753188812,-0.190469896456314,-2.58247558717042,-2.60570660243075,0.230257082968856,0.165688616891932,0.283659284283239,-0.767756181852356,-1.06986772087111,-1.15664381321097,-0.977230263262078,-4.14659615384637,-2.15532729993643,0.489427325783417,0.172003665588371,0.136665514900536,0.314874765125954,0.330392768837353,-0.118043263450968,-0.500035057464244,0.437530484379299,0.440715144086459,0.886303659005571,0.183100066552809,0.431406949396741,2.11656551364099,0.803196591432897,0.286790957464866,-0.329968120046008,-1.00137772317865,1.08384907936647,0.755345873790241,-1.64333907664643,-1.01011852667966,0.413691625052547,1.55922430142799,1.37515034030244,-0.229619813962968,-1.31452154009677,-1.60411142514615,-1.2546561856712,-1.08341951877375,-0.515585381914275,1.31783317018289,-0.795781355837261,0.221473770872824,1.07642814268022,1.10964851063589,-0.711503084106124,-0.244057680581462,1.64655670820972,1.03621954167181,-0.147781656997265,-0.198991994598003,-0.488188042638976,0.272825921138157,-0.146833130123707,-1.30202463941489,1.59997195533385,0.98239112057423,-0.892796318102181,-0.80404873931884,-0.461968275457501,0.102126879989688,-0.480517977620009,-2.04426427564139,-0.0888479030049261,-0.917629221014061,-0.971200897564004,-0.117044982513706,-0.260555276650392,-0.816534493728947,-1.10842595182937,0.987124611047405,1.88594457653898,-0.026339012139236,1.01886797199842,0.987318874520404,0.494710635303285,0.295369695201386,-1.144534287811,-0.133480505712345,-1.4167009614332,0.107767607688622,0.740695579300009,0.323268009763829,0.418020763955381,-0.0530911554048333,-0.660760690586022,-0.174222462711164,-0.423347708426909,0.707854082060927,0.456198449606541,1.94972941927723,1.27983018413385,-0.493310401475312,0.274251757104145,-0.0660173818287794,-0.715216893968177,1.25300712768768,2.73012916817037,-0.322872638440048,-1.30122920086189,-0.922508408125745,-1.8058152903134,1.24114687362628,-0.111783269670893,0.359251272447324,0.408984623317475,-1.10839725517316,0.24342942965204,-0.285421750690173,-0.152585481725123,-0.730601278973938,-0.767212103365287,-1.83750104655768,-0.838312966884004,0.0165011953299641,-0.56937756051081,0.36102404899525,0.497985184254402,0.270075707066007,2.00197007503823,1.24574778799566,0.208794281846047,-0.582194251482993,-0.850439674042689,0.829484052474558,-1.0675498333742,-1.31174605065406,0.0143044296620995,0.0898232632335274,0.0167893185567965,-0.533541514974459,-0.194370940687931,-1.43315338403346,-0.611332469840662,-1.39746168632535,-1.5020579848028,-0.817319419620697,-0.694838325888204,-0.197692663492319,1.40461445335744,-0.542310890364003,0.0833079707811134,-0.98612948069396,-0.560683665105838,1.16716841824517,2.02093782537579,2.27167341080244,0.257279003636158,-2.08603815470941,-1.29458730269463,-0.320430570163453,-0.0978403806409138,-0.662167899897296,0.683091550254538,0.0279882489663069,-2.6398703189344,-0.180605067591992,0.73136028043915,-0.242060096514711,0.170597011922353,-0.724847814521676,-0.702334651518597,0.11392927101106,-0.998503799969636,-2.39192763959749,-0.386953597414209,2.08721938619107,-0.139240273840374,0.0972153084972338,0.727536303611716,-0.00740601858868739,0.326646790673451,-0.350961486822365,0.26072608326125,0.571094100793996,0.340070020213927,0.416249099213037,-1.47843439242502,-1.00577481586467,0.396729561566876,1.13384695633558,0.930098460556123,-0.545707182724507,-0.353945066064917,-1.6276909051461,-0.739882281034102,-1.22717017790201,-0.131709882124621,-1.17987143154288,1.04465818475269,0.70570175261842,-0.197202490478083,0.148349812090627,-0.425079129759233,1.18642945928781,0.195730147604348,-0.935104157387128,-0.979021334967728,-0.104831134550628,0.756277988092305,0.459112663125823,0.335346277564858,-1.33455786470359,-0.88474097812446,-0.613236287709292,0.664819211884482,-0.693501893293935,-2.69212978186373,-1.18364284007748,-1.85478106766634,-1.09431462338453,-0.509646720864403,0.165646731252136,1.35859052940237,0.417554260309013,-0.111004918333409,-0.062966896694867,-0.391193057517338,0.674185656727841,-0.396954127920331,-0.181515233242013,0.699124495672747,1.6767991489244,1.27821512033815,0.25036700364883,-0.222647013339392,-1.29092426074774,-0.63580536573464,0.00348796279548625,0.223280323648334,1.94015763967996,2.03430303800193,2.06619949182867,1.28349036876158,-0.226115616613764,-0.685741919187217,-0.47729056390205,-0.277317225632323,1.78393630045548,1.30721715570209,-0.904055234917223,0.915330718217631,-0.322414285728779,-0.537175625038948,-0.30747192410791,0.460793068326081,0.138359596193078,0.10781227806369,0.0716230280101594,-1.23459115008811,0.406355334774452,-1.01513614577089,-2.73099671292009,-1.70170608484377,0.935883470353362,0.41462899304291,-0.371740609019745,0.116771360449798,0.411509179273055,0.944205116277341,2.20206381732416,0.513452798289812,0.334090370429526,0.539583029399055,1.17279716855471,1.42443412149855,1.84245105682003,-1.44656957403853,-2.00236662072162,-0.0928996819572638,1.18771289306026,-0.222190106054869,-1.18765311059576,-0.413330817451859,-0.0838449316435824,0.774084255783999,-0.214095128597041,1.32888637331823,-0.720081057643863,-0.893080163847097,-0.405722882822799,0.556398195730441,-0.0333426030584847,0.0368580004204441,1.34030993335898,-0.256474124916092,-0.113523788751473,0.458700626758152,0.466510542542839,1.36296388211957,2.44455953590612,1.09712576986796,-1.80301954474842,0.835507847336705,2.48106226176819,2.20324803358232,0.268954721190132,-0.790299552891689,-2.37067700674675,-1.50660887098268,-1.9342744020869,-0.405279805698833,1.04814608134325,1.27628418436311,-0.84789688845659,1.68197662768658,0.45468122708033,1.15221416653931,1.01719466013198,-0.637974750043443,0.253751148694199,0.0260603176586344,0.343395436456154,2.19941734693281,2.17720005746772,1.24399001519071,-1.63309556928241,-2.60475114104301,-0.159666595837487,2.35517643276619,1.76957361690403,1.8438132956063,0.517439676314856,-0.828820605985831,-1.33589749417732,0.401817130546855,0.78906039611362,-1.98738776261336,-1.36879117398141,0.00550582768823293,0.111993830249233,-3.44284669216693,-3.99944343310414,-0.0293302522167855,-0.217643178978017,-0.208153459681335,-0.220965226099992,1.25834111115346,0.99387903722158,0.776781071529072,0.164125553977047,0.842825654549652,-0.316696141549453,-0.722050230275745,0.0332277321820671,0.300700131082016,-1.37021216210721,-0.817997428129162,-0.770574776575246,-0.0709252903460674,-0.434694375549505,0.404412049760128,-0.632558831103085,1.24187401363092,1.42590114495892,-0.213952577209351,0.633399397275635,2.41212825759094,1.87701398872676,0.558422356022295,1.16008121881255,-1.11507530579131,0.120822129357872,0.893779907646999,0.19849081025578,-1.80101019903517,1.02250647859003,0.688476251171406,0.833520221690096,0.310927663470652,-1.29065567380072,-0.928867150479555,0.822506311814276,0.287738934013898,0.301269334727248,-0.162045116898787,-0.377707505746989,0.484539118252089,-1.13862972468827,-1.50535257917222,-0.0744005966335724,-0.995400667517273,0.739682319977735,0.950708448689168,-1.33344794394592,1.09350672082821,-0.115652748845935,0.948841041831718,1.37060997402612,1.73563755479314,1.28176656528472,-0.262901234965236,0.157978576946877,2.61874359430459,2.46479917296404,1.79357025289383,0.987940916570464,1.03254580595412,-0.213703481577586,1.49848259435004,1.61286987523411,1.22160605357832,0.388635155026826,1.1586357060866,-0.133420482190054,0.348703538164818,0.982678658295729,0.0429034953171568,-2.16146319723595,-1.09964281502989,-1.38345167293069,0.365432115205227,-0.974032976035162,0.865195005839754,1.18021675668605,2.16579163530132,1.46733455381233,0.432584003573449,1.31812896741816,-1.05925066896546,-1.85815028174484,-1.08263854697242,-1.57599226609929,-0.579824110707207,2.23966623666139,1.25688272985032,0.525713803787361,0.518213209378636,2.40742340617818,0.345988314095372,0.407826796529221,-1.19623358337037,-0.177060007234261,1.31769752601543,-0.0126458530860631,-1.61876431369327,0.0490029212010502,0.639715764358172,-0.366714035147637,-0.57811233205927,-0.233958969966242,0.361773527279891,0.335298720438025,1.09188265243866,0.356311769416588,1.24658843829204,1.20849924877691,0.307189970686478,0.232647253795513,1.94626158483914,2.0088332588226,0.928700299072504,-0.449454732287811,-1.5429284595655,-1.55844439634104,-0.176175240049498,-0.938152109215247,-0.157463816456336,1.13155113237859,-0.196557365463282,-1.21366968240113,0.452444156312205,-0.860207463412706,-2.15377089662247,-0.0969869988101842,-0.660046261788161,0.712836255854768,0.528857819415441,0.243738041573439,1.5645835714538,-0.658731541425252,-0.636904253160787,1.06687666600922,1.36225970103358,-0.599697304157127,-2.90969794005307,-0.298862272855454,-0.938068021823865,-2.50366391897951,-1.93195885061213,-1.68273465031748,-0.197804645575287,-0.181468809995733,-1.35294559541179,-0.431819911040493,0.892071269463342,1.11442364250142,0.881341126676395,-0.143088661958127,-0.452340194654024,-0.35257297122584,0.160386910771526,-0.827074449521358,0.41768770493896,-0.461508154112161,0.0329296804114695,0.475887347210491,-1.69977878096632,-0.129303680947061,0.934684529194062,0.534623423490411,1.51541392295335,-0.572882937903115,-0.747524396647521,0.284309956287084,-1.19994442284216,-0.144685398126258,2.08383062744853,0.799351131821507,1.74140388467879,-0.0654118834259485,0.961470154624586,0.999292410060112,-1.72917448252407,-2.17457514487286,-1.68139269493532,0.527012250430837,0.767592510525275,1.31509262775411,-0.534589520635966,-1.14487518367087,-0.714743232871579,0.318502456272539,-1.00303330726522,-0.309953716139996,-0.2454872538683,-0.239490743227369,0.647412143036877,0.30205837479659,0.788532277827855,-1.21742516292194,0.472338758754361,-0.518774744634967,-1.18828258854219,-0.423069294145794,0.463397603298049,-0.507220408476464,-1.23199340197382,-0.0614837003413824,-0.43153422120141,1.20411150469384,0.532558318162046,-1.24485121476939,-0.607167998668836,1.84673644354191,-0.289859107331165,-0.409326958023462,0.828972237779641,1.87712045509111,2.66017002236217,1.34882844765962,0.533085550490943,1.66492509088193,0.832214229030229,1.28967630909658,1.71616248709939,0.896114468081893,1.24447040855613,1.55024591150192,1.33437159225836,0.580184952401875,0.15244048986813,0.489676461628274,0.672149495811321,0.0282252009375106,0.628862082134611,1.04399290080872,1.01653256657521,1.11666606434064,-0.623295661061803,-0.874287585564178,0.9917735459618,1.17031207925959,-0.555490419773986,-0.289300910128118,-0.0558684178330437,0.2433108063039,-1.18933397874403,0.155856136602279,-1.11487119435983,-0.654484083795643,-0.0236093677393478,-1.27872436351567,0.921028685867135,0.839941406706667,-1.47467328811798,-0.477735625629668,0.724780681133107,0.604740422098169,0.516643720988031,0.325752306824946,-0.659673232392819,-0.156113063820251,1.98780421310887,1.33422815222842,0.189337674311543,-0.172767670394554,1.11518625509143,0.771637768335218,-0.547998927302237,-0.0314992705460552,1.13825414447839,1.46842329313055,1.10318381182223,2.0143651292051,2.07936330488481,-0.130513630275359,-0.0556457029666226,-0.551093669048252,-0.914174484788783,-0.450587249386539,-0.322811989302585,0.280387875618882,-0.843843395576509,-0.715205649092203,-1.8055983909724,-0.317188090280099,0.043462160690189,0.830564894787193,1.00942129503324,-1.4493319983615,-0.61566566235482,-0.215244093939588,-1.2230713764424,-1.215114160103,0.407566930959763,0.164676792796045,-0.707364560818962,0.798366854373901,0.321668034045364,-0.77120044426098,2.25491496910284,1.32305828354068,-1.67939520559788,-0.213212471370597,2.32447592926698,0.576938387228278,0.349228533826614,-0.455887931126687,-0.243532456522665,1.62502762427186,-0.283123285451387,-0.676142275348711,-1.97346729059851,-2.86157262062885,-1.51671608732901,1.47259401628239,1.2743767959109,-0.088096692775684,1.1486488917702,1.25838470051351,-0.106273256563747,-0.646533753704597,1.11060814620334,0.193677659045221,1.10091686979542,-0.0572252845082371,1.4477618801478,1.22982679271999,-0.407106623975833,-0.593472420166881,0.0715154126842053,-0.581740673334849,-1.55548836816747,-0.382616384279152,0.377274510934029,2.45059646398012,2.55651510995112,-0.00508543189987198,-1.79682106087405,-0.360639744063827,-0.0467626670131687,-0.226414333862895,-0.802913979704292,0.391100146038233,-0.049252654526611,1.01491071457221,0.92639325109023,1.50809102678834,1.23447017312758,0.0494432551944735,-1.54944348561422,-1.53447390662781,0.349319271294582,1.4895716503152,-0.855311100526754,0.149444289701878,-0.0442820156476891,-0.119610448627607,0.173854989087736,2.9484816614722,1.83046428201003,-0.755530581676775,-2.22158213376983,-0.327170847603412,1.14603733762955,-0.698877400148746,0.81425056509047,2.52789254131828,1.20505209904939,-1.36699699142011,0.516458917836428,1.09869279238033,1.0724040430105,-0.560574028150944,-0.05306632458161,-0.0522846218227167,0.859900786531976,1.99191218819295,1.85242328904581,-0.710543500923283,0.339985075147716,-0.0340950079030228,-0.836470809293691,0.0978749385809722,-1.15893188590316,1.43310436286036,0.460236116439806,-0.615121884781067,-0.488712418469868,1.04376973602097,0.463888626801033,-0.433968795433847,0.279783375273175,-0.36682139267954,-0.229500165888519,-0.0930935360450983,3.49976005669846,1.33617430302455,-0.934159400165374,-0.428358152489127,-0.987961248637788,0.510904509721733,3.44508481649965,2.89439927027179,1.56836513604999,2.28023264791063,1.28776119457504,0.684429219776039,-1.12215582365336,0.346960688835129,1.70312523068702,0.408986016322756,-0.144496524185828,0.798972566395855,-1.4012778208675,-0.637439526454308,0.110256860579384,1.31235485817838,0.296645214119829,0.157036108170476,-1.76795271178565,0.480865379400976,1.50767431872751,0.419331858706588,-1.89304339928396,-0.329497608696547,1.11093659084209,-0.25910438455165,1.03681100519967,2.11555531130405,-0.504395454142553,0.170196927323426,1.03815710699989,-0.272045400903743,-1.03371479737796,-1.45691970869451,0.159075094008999,-0.336559778438097,0.91396567197356,-1.31505525956704,-1.68215640361951,-0.961579566270018,0.259289487725527,0.929436177858492,1.32371611302679,-0.608014874107958,-0.0252937373827434,1.40019488384896,2.373960075473,2.08017040812004,-0.267769002411362,-0.726858085319868,-1.8176950284402,-1.23333459733062,0.556074861060022,1.2376440527408,0.443699965082889,-1.03087328043307,-0.205632585241577,0.209040991009757,-0.668224891400921,-0.361193893732419,1.38504813431651,0.903114726496555,-0.142986477081957,-1.45652486076639,-0.682268537821529,-0.669344628998363,-0.741854689735018,-0.091943062058265,0.480931838944458,1.07817123781802,1.52722885151993,0.536855758243715,0.965260262991455,0.94775919324061,-0.481355702300789,0.693943082875574,0.615550464759096,-0.215403561897788,0.499990936380944,-0.278900531754275,-1.4080294545315,0.637267529030698,1.26444475837213,-1.58488430570554,-0.734561088648747,0.138198157925467,0.599627394423274,0.0454533784133485,-1.52430641346138,-0.888421048831142,-0.233766503985108,2.12400522308634,0.385679872747248,-0.335484847478589,0.363745136611547,0.073619472512356,-0.779483852414472,-0.606028776676879,1.27877487430812,-1.4828907325448,-1.91968939687319,-0.598813290331262,-0.48801134198807,-1.40629965344337,-2.10654941315843,-0.293166715425923,0.803980605214707,1.18368593998044,0.286116727411523,2.26484595424855,0.683082560093284,0.208400937263242,0.999037452345452,-0.589343298282141,-0.832389641585815,-0.084051265117174,-0.0590831830092467,-0.0430096187781248,-1.25510661040612,-0.332623949375361,-0.441053596735383,-1.23578364282367,0.978332847239445,-0.953036691707429,-1.28752590208542,-0.340413787214469,2.05393084022701,2.01852308669704,0.36236324445363,-0.118743388604806,0.406134514963879,-0.0208895645737512,0.865994147985638,2.37706867992325,0.65305256049129,-0.956401786705291,-0.28437796912922,-1.46777768668717,-0.105382637757831,0.359776191875608,0.210368507742178,-0.859867580371091,-2.13272674694716,-2.08606415757781,-1.21061798337475,-0.691628000579603,-1.40362295231754,-0.846297042854602,0.358650437436266,1.08068013144264,1.76986473955929,1.12779649206032,1.99428655587219,1.56161025378577,0.762676274790918,-0.90158032710707,-0.916529048139826,-0.0221006754423289,1.54134975829753,0.851895705744649,1.42096762873719,-0.81371854630046,-2.0426662008011,-1.5991129508166,0.13338477990847,-1.4992363779314,0.365177186506196,1.02051038550513,0.458311867151275,0.526017037264097,0.686755677631856,1.03028191626135,2.44518753158527,-0.101847490623184,-1.21391403492043,-1.93341844929148,0.0131756823677307,0.253527455320434,-1.34060602122253,0.605697566848458,1.22713595599878,-0.872461014338473,-2.55731342742728,-0.418411865651157,-0.374265898398939,0.348064218364678,0.911310686027409,0.0921043599793058,-1.82478344165854,0.294790278487505,-0.0234805916920119,-1.50492365669586,1.46870157734264,2.30535401887895,1.69038371892969,1.89342006719244,-0.508163667902916,0.919329876857652,1.02256535584266,0.560493158803835,0.0822861492758277,-0.150817518020674,-0.614578704114968,-1.69495316404561,-1.32428880984357,-0.372765875417353,-0.667835138289988,-1.23938832640484,-0.826795442312107,-0.533449234102856,-0.611609596521708,-0.834262187397879,-0.812806821419142,-0.0889769935485346,-0.266042515436428,-1.56493529552177,-1.83540424291915,-0.382928635648747,0.203624803684533,0.335590901537922,0.0816915213864357,-0.406759606493143,1.03334372668637,0.140020723205686,-0.282174742240224,0.717848298145266,1.05315821467407,0.816737690852525,-0.0891728149708403,0.247646813271631,1.12829688300588,2.45532141620644,1.63070567041979,0.47674884784878,2.04636264221532,3.04430408684656,1.25717414996519,0.61829182286397,-0.998835484314956,0.365996586215836,0.881127965168878,-0.342008662341043,-0.369477658156604,-1.06095034903635,0.733784804053774,1.08857053933039,-1.50541539352586,-1.28174538131029,0.712561084854336,0.695691691165537,-0.281607302270496,0.891167791489131,0.376809345127312,2.75583095004434,1.73576836300843,0.131028526213973,-0.633569382177781,-1.22058644061323,-0.547408603949709,0.96482619579463,0.288942417426994,2.28819433993971,2.9573416049845,0.642955089014078,-0.331219256248748,-0.422332133403396,-1.31064110881338,-0.831684267606906,-1.13637701084118,-1.36944928807878,0.173439801946884,-0.327035755103528,-0.884098942575819,0.406908243712962,0.657032737847011,1.54519712037801,-0.31498618731767,0.416189843007286,0.17287425647259,-0.589965942294884,0.560722426187438,0.361266296434955,-0.389606822212275,0.0228462120508253,0.00529004977662666,0.361615090063552,-0.625978705263728,-2.6049104276465,0.317331775576024,0.818403228631207,0.188001156170552,0.805690453449238,-0.248620194143597,-0.317754690844354,0.0518981007767061,-0.28472504666516,-0.446197237354043,-0.303549302961124,-1.7018313282479,-1.11212459469085,-1.87925033313043,-0.60174462333906,0.329476607284615,1.09105897409431,0.312088175050296,-0.221388149595862,-0.0451873952237151,0.931984689745644,0.637064947791546,1.1895820454579,-0.259633101038476,-1.44890313674239,-0.453004117494038,-0.242562332929166,-0.378298099816827,1.18451932650053,0.418912239211054,0.419661632582072,1.55618512014955,1.97048010657561,0.734327190236217,0.0809711330399409,0.0496477709944253,1.09680865703162,0.936013910313275,-0.815285508382699,-1.01885840804831,-1.11202225639653,0.625378301539941,-0.052149224698349,-0.772235255536712,0.231281571000619,0.952821879995586,-0.108567106913403,-0.0453019630962683,-0.459079135432976,-0.724480548871981,0.0350591273557545,-0.939182557632875,-0.203187389627847,-0.332624921655736,-1.04023801100008,-0.430384403528434,0.527893196769434,-1.04804450995344,-0.544387055099591,-1.90806508133897,0.45457057319389,0.714237628196148,0.304238309301749,-0.41173072990873,2.03063465781518,1.3661382008058,0.460917889637088,0.86742672321855,-0.132170089141941,1.42002422404546,-1.07131569711688,-1.30615654686222,1.37857544165542,2.18871778282105,0.525904620631876,1.22322042346509,1.33936071584272,-2.24852447579993,-0.334467780629294,0.715493229083976,-0.0984792580538479,-1.54285913924838,-1.18195119960681,-0.617641225749769,-0.144521168892739,-0.302109402565817,-0.785588024998827,0.824676396390644,0.80402999374027,-2.582716767272,0.00504167086498808,2.36008786742495,1.41007769334471,-0.357964705436458,-0.147891596866105,-0.097191508583832,-1.05903206154184,1.00113688933184,1.18109915946287,0.451750888595736,0.300419623716965,0.342898945865128,0.752525036470726,-0.46074060054151,0.158227551181416,0.631144876954031,-1.08680982406144,-0.854064853978356,0.146968547830646,-0.735530555820247,-0.986201909796436,-1.58360723901324,-2.28821783824283,-1.56942691172499,0.178059708143432,0.943786788686899,0.0634925198601479,0.765247233061104,-0.926251120867438,-0.353210734208173,-0.265346517176172,0.648684626437525,0.746569338562454,-0.628059919340972,-1.279856893154,-1.59465917457232,-1.17072805467018,0.414138646954653,0.9318050280778,0.35503140128495,0.927544362051883,0.360781346353828,1.26631955779334,0.459942977966132,0.674930707090421,0.404748681553535,-0.458048197139344,1.37025444557794,0.785357501170487,-1.12409205973036,-1.7514429301133,-0.367460925901216,2.08683811858651,1.22824651007638,-0.652207165209863,-1.95403055788146,0.21496953849062,0.423073946427282,0.266775938444792,0.2695597405683,-1.23028033111561,-1.52382499583209,-0.356359291232826,-0.805811011338937,-2.08983909651465,-1.06151269048815,-0.348701625104898,-0.26874882602511,0.0826773205304523,0.670569615660218,0.75871520180252,1.6293692474238,-0.185086338979464,-1.16662743044929,0.151402292675963,1.17287792367914,0.935546050426004,1.00616762070092,1.71403690022545,1.80510880080013,-0.732660932149827,-2.56044393137865,-1.84384021582848,-1.02364135212344,-0.599810793184897,-0.81471463670972,-0.184007098423394,-0.406301360629236,-0.57148935716072,-0.452025374304786,-0.637431818301196,1.05366229414652,1.7934832603938,0.135091683379933,-1.52946859093081,-2.55361345866534,-0.558727413277705,-0.953527927050435,-0.971153224431621,-1.75317010607437,-0.984204014086918,0.21246188524695,1.55612305276485,2.17947670744853,-0.0638340091803041,-1.02398685980737,2.48510121742978,2.69143013679037,0.217786859458871,-1.22202037505739,0.805152242246934,0.368717891660452,0.364899137130649,0.82947770991006,-1.73307061314081,-0.2784469091809,2.32411591030969,1.55910669990411,1.03169717781046,0.945208382958903,0.550379956457726,0.862583786057557,0.427659235465948,-0.224815477215443,-0.932605397709544,-0.645011853847845,-1.6809798170338,-0.240741995502455,2.84487263366699,1.50939411866059,-0.795958313903899,-0.435171515466247,0.919613218897267,1.20628532935405,0.689741968780608,0.319132517073937,1.24169717186073,-0.858316985946199,0.522569074143052,1.76776120546539,-0.46427248680656,-1.11547535262078,-1.28033640280106,-0.670953852501584,-1.11251252920218,-0.567488638224125,1.63412867336486,0.456235161645171,-0.510490401196908,0.501993662124282,-1.11878738729044,-0.977960062139936,-0.0759437643111616,-0.676561821334159,0.337987306335504,-0.458179055378467,-0.348515338416563,-0.957358474276703,-0.215996377587546,0.161622238933709,0.172301532945775,0.0239447862440213,1.54426650758312,1.65244188145379,-0.668593965667666,-1.18811095303701,-1.82616687454675,0.0229686029486709,1.72741787258918,2.07604657938819,0.541704785124393,-1.73777106249936,1.11583633874866,-0.597477860560752,-0.682764999409237,-0.269818547826574,-0.633320395405613,0.381184234319915,-0.509378671449229,0.125238040870469,1.37584643285888,1.32385471056043,0.917667652858626,-0.184750642204435,-0.400806521566406,-1.33322162720133,0.571212925112589,0.371922108545531,-1.76774031212581,-0.191474355172511,-0.804862470429036,-0.400159023413302,1.35042199137828,-0.433949444486401,-2.89775885487159,-0.722953134164074,-0.585933728915868,-2.4774038878525,-2.16639109992162,-0.446317858997604,-0.758993542833362,-0.735435598734957,-1.2117558677975,0.195072264249072,-0.578588458558996,1.90042110730171,1.48003908400957,0.737939771321629,-0.60576977734928,-0.817057164565557,-2.0416373957979,-0.488527172592174,-0.0253829802852172,-0.029640434516823,-0.210336456139809,-0.831582830250905,-0.00617941385725473,-0.657262931170239,0.55886496910595,-0.957340222297623,-1.14980769825391,0.361065759945134,0.282775147341356,-0.593922073065661,0.442819186997106,0.749364084987072,-0.181785994920934,1.19048648400008,-0.219459593723733,0.935223827389091,-0.0619320948708213,-0.184409540564913,1.15622560844038,1.71373746316831,1.56157322335108,1.12792067215067,0.309383302385911,0.540642463391859,0.661999510607943,0.292768863071474,-0.686463960391669,-0.391032699678272,1.4765213077675,0.410732481449172,0.539508380978843,-1.42712101457788,-1.10942612354241,-0.484878034570013,2.02036084439045,-0.497881184948244,-0.707894519208767,0.311699892943386,-0.753221189481752,-1.49122358042475,-0.114851854602376,0.457902206955176,-0.832586518925718,-0.176254867113425,-0.390974072906819,-0.589944045029571,-0.0181980634887194,-1.3959637451268,-1.19999280000229,1.65233303510989,0.0638679197494773,0.607870639690139,-0.593687406963603,0.308936499315207,0.232022221708325,0.577579739717438,-0.311320481440395,-2.07286456928725,-0.392503505021954,-0.466519041423909,1.00888098163828,0.924965935817311,-0.787214139062833,0.282907927352554,0.167045787873625,0.365757360874314,1.48819839780399,-0.764516181639972,-1.33969739159422,-0.327761974516366,-0.322396857531186,-0.40039596300338,-0.964984921239932,-1.08979055761056,-1.70527794202735,-0.680692039773677,-1.24309301170766,-1.71469605394966,-1.2309411698265,0.50355725526795,-0.647404197722731,-0.874617704355896,0.791248284015632,0.593512735469732,0.0384579865748861,-1.02480305575327,-1.25486316812683,0.424054128910014,-0.482976685805752,-1.91791518588836,1.66115762532984,-0.194694866341492,-0.154437576278884,-0.527773780452772,0.37309687031894,-1.6653013536685,0.353971211787078,-1.58682208445552,-1.64178347487368,-1.24495912838482,0.271617516738719,1.00677160867762,1.40884643195382,0.422046579153396,-0.24488580263956,-0.163344688067165,-1.33467288402284,-0.667545577602198,0.693036026855335,0.510971854408175,0.997948532534847,1.06121014960935,0.112739946455384,1.12426584897528,0.172391803244585,1.95423184384478,0.455829506896248,-0.441952679321193,-0.565706930921755,-1.40427561561379,-0.959856587050298,-0.735074410584833,-0.674521707764816,0.364115369989392,0.563481116819923,-0.883027377799189,-2.12451307512277,0.301665880398382,0.46675583118541,-0.464315099733785,-2.60751678680594,-0.162951227087738,-0.381058984570853,-0.990900183959773,-1.71007178205412,-0.962293065372985,2.031320858173,-0.51167162249647,-0.187782531255484,0.263171906332019,-0.162163069011856,-0.710585168086597,-1.09657830510607,-1.2125156550355,0.626826726569081,1.70924293002383,-0.46062530902104,-0.244981652117787,1.92769414443047,0.732554754521676,-0.290954963517364,0.0512031543764401,0.115044936759154,-0.954067484153784,0.294607997955017,-0.217777545957634,-1.68358643899769,-2.12192291482651,-0.341308557307655,0.448144975051675,0.574816537237295,-0.226803509157901,-0.401976497651908,-0.475363383995594,-0.763161974482645,-1.14203739141195,-0.208735824820357,-0.979997669631845,-1.59972677143774,-0.0357293880065901,1.27819175863199,0.230584089533285,0.406913891785581,0.563441621752084,-1.35519970638007,-1.27389210169863,-1.66138670419145,-0.677564918919735,1.42015586107122,1.24559028608428,0.182828631700794,1.81835526944345,2.14930942666115,0.544084326595491,0.527286012158634,-0.338267130370927,-0.0693252419742188,-0.392770583347848,0.069884071593422,0.379446065587047,-1.06453841225434,0.147601764009069,-0.514516861115033,-0.801096352400727,0.554115940204365,0.139708586774758,0.407760293920088,0.383883721888931,